#EXPORTTYPE:DATA SINGLE							
#FILE:B&D.ngb-sla							
#FORMAT:NETZSCH5							
#FTYPE:ANSI							
#IDENTITY:B							
#DECIMAL:POINT							
#SEPARATOR:SEMICOLON							
#MTYPE:DIL							
#INSTRUMENT:NETZSCH DIL 402SE							
#PROJECT:1							
#DATE/TIME:10.12.2019 16:07							
#CORR. FILE:							
#TEMPCAL:TCALZERO.TMX							
#LABORATORY:1							
#OPERATOR:1							
#REMARK:							
#SAMPLE:B							
#SAMPLE LENGTH /mm:16.56							
#MATERIAL:Ã’¥…							
#MEASMODE:Standard Expansion							
#M.RANGE /¶Ãm:20000							
#CORR. CODE:010							
#RANGE:-110°„C/5.0(K/min)/200°„C							
#SEGMENT:S1/1							
#SEG. 1:-110°„C/5.0(K/min)/200°„C							
							
##Temp./°„C	Time/min	dL/Lo					
-100	2.14097	-8.90067E-05					
-99.9	2.16004	-8.83769E-05					
-99.8	2.17909	-8.79969E-05					
-99.7	2.19813	-8.74585E-05					
-99.6	2.21719	-8.69959E-05					
-99.5	2.23629	-8.64446E-05					
-99.4	2.25541	-8.57184E-05					
-99.3	2.27452	-8.53973E-05					
-99.2	2.29369	-8.48058E-05					
-99.1	2.3129	-8.40977E-05					
-99	2.33216	-8.35393E-05					
-98.9	2.35145	-8.30225E-05					
-98.8	2.37079	-8.26045E-05					
-98.7	2.39019	-8.18301E-05					
-98.6	2.40959	-8.09695E-05					
-98.5	2.42911	-8.04733E-05					
-98.4	2.44866	-7.98785E-05					
-98.3	2.4683	-7.92696E-05					
-98.2	2.48796	-7.8337E-05					
-98.1	2.50769	-7.77963E-05					
-98	2.52744	-7.70916E-05					
-97.9	2.54729	-7.64019E-05					
-97.8	2.56718	-7.56678E-05					
-97.7	2.58718	-7.47188E-05					
-97.6	2.60723	-7.42241E-05					
-97.5	2.62731	-7.33899E-05					
-97.4	2.64741	-7.26797E-05					
-97.3	2.66758	-7.1806E-05					
-97.2	2.68779	-7.12398E-05					
-97.1	2.70797	-7.04562E-05					
-97	2.72824	-6.94755E-05					
-96.9	2.74853	-6.85409E-05					
-96.8	2.76886	-6.79977E-05					
-96.7	2.78923	-6.72209E-05					
-96.6	2.80961	-6.6331E-05					
-96.5	2.83001	-6.54733E-05					
-96.4	2.85043	-6.46337E-05					
-96.3	2.87086	-6.3874E-05					
-96.2	2.89132	-6.28853E-05					
-96.1	2.9118	-6.20359E-05					
-96	2.93228	-6.12607E-05					
-95.9	2.95277	-6.04368E-05					
-95.8	2.97321	-5.92781E-05					
-95.7	2.99364	-5.80507E-05					
-95.6	3.01404	-5.8166E-05					
-95.5	3.03447	-5.75276E-05					
-95.4	3.05489	-5.63387E-05					
-95.3	3.07528	-5.52159E-05					
-95.2	3.09571	-5.41269E-05					
-95.1	3.11612	-5.32041E-05					
-95	3.13653	-5.22202E-05					
-94.9	3.15686	-5.14197E-05					
-94.8	3.1772	-5.0976E-05					
-94.7	3.19754	-4.95599E-05					
-94.6	3.21786	-4.85393E-05					
-94.5	3.23815	-4.71734E-05					
-94.4	3.25839	-4.63765E-05					
-94.3	3.27863	-4.56184E-05					
-94.2	3.29885	-4.44309E-05					
-94.1	3.31904	-4.34188E-05					
-94	3.33923	-4.25548E-05					
-93.9	3.3594	-4.16418E-05					
-93.8	3.37957	-4.05946E-05					
-93.7	3.39971	-3.93863E-05					
-93.6	3.4199	-3.86827E-05					
-93.5	3.44003	-3.76149E-05					
-93.4	3.46019	-3.65172E-05					
-93.3	3.48033	-3.54209E-05					
-93.2	3.50044	-3.45054E-05					
-93.1	3.52057	-3.36513E-05					
-93	3.54069	-3.25322E-05					
-92.9	3.56083	-3.13454E-05					
-92.8	3.58095	-3.04591E-05					
-92.7	3.60107	-2.93828E-05					
-92.6	3.62119	-2.83078E-05					
-92.5	3.64133	-2.71262E-05					
-92.4	3.6615	-2.60883E-05					
-92.3	3.68166	-2.51263E-05					
-92.2	3.70183	-2.40827E-05					
-92.1	3.72196	-2.2913E-05					
-92	3.74213	-2.18087E-05					
-91.9	3.76228	-2.07703E-05					
-91.8	3.78247	-1.9701E-05					
-91.7	3.80265	-1.85471E-05					
-91.6	3.82285	-1.73891E-05					
-91.5	3.843	-1.63871E-05					
-91.4	3.86317	-1.54053E-05					
-91.3	3.88333	-1.4099E-05					
-91.2	3.90354	-1.30183E-05					
-91.1	3.92371	-1.19144E-05					
-91	3.94385	-1.08258E-05					
-90.9	3.96402	-9.68499E-06					
-90.8	3.98419	-8.37066E-06					
-90.7	4.00437	-7.18764E-06					
-90.6	4.02452	-6.23507E-06					
-90.5	4.04468	-5.04685E-06					
-90.4	4.06483	-3.92026E-06					
-90.3	4.08496	-2.77829E-06					
-90.2	4.1051	-1.65984E-06					
-90.1	4.12523	-5.74864E-07					
-90	4.14535	8.26321E-07					
-89.9	4.16546	1.9614E-06					
-89.8	4.18556	2.90937E-06					
-89.7	4.20566	4.28421E-06					
-89.6	4.22575	5.47462E-06					
-89.5	4.24584	6.5553E-06					
-89.4	4.26593	7.72033E-06					
-89.3	4.28601	8.93283E-06					
-89.2	4.30607	1.02672E-05					
-89.1	4.32613	1.14115E-05					
-89	4.34619	1.24061E-05					
-88.9	4.36624	1.37215E-05					
-88.8	4.38629	1.48976E-05					
-88.7	4.40631	1.62176E-05					
-88.6	4.42637	1.73289E-05					
-88.5	4.44638	1.8367E-05					
-88.4	4.46638	1.9749E-05					
-88.3	4.48639	2.09007E-05					
-88.2	4.50639	2.20593E-05					
-88.1	4.52639	2.32566E-05					
-88	4.54638	2.46055E-05					
-87.9	4.56637	2.57657E-05					
-87.8	4.58636	2.7094E-05					
-87.7	4.60635	2.8074E-05					
-87.6	4.62631	2.93302E-05					
-87.5	4.64625	3.08228E-05					
-87.4	4.66621	3.18223E-05					
-87.3	4.68615	3.29836E-05					
-87.2	4.70611	3.42981E-05					
-87.1	4.72605	3.55055E-05					
-87	4.74598	3.67171E-05					
-86.9	4.76592	3.79844E-05					
-86.8	4.78584	3.90111E-05					
-86.7	4.80578	0.00004052					
-86.6	4.82571	4.17972E-05					
-86.5	4.84563	4.26991E-05					
-86.4	4.86555	4.41357E-05					
-86.3	4.88545	4.53924E-05					
-86.2	4.90535	4.65776E-05					
-86.1	4.92526	4.76825E-05					
-86	4.94517	4.89235E-05					
-85.9	4.96504	5.03198E-05					
-85.8	4.98495	5.14308E-05					
-85.7	5.00482	5.26122E-05					
-85.6	5.02468	5.38205E-05					
-85.5	5.04457	5.51007E-05					
-85.4	5.06445	5.64108E-05					
-85.3	5.08431	5.76891E-05					
-85.2	5.10417	5.87778E-05					
-85.1	5.12404	6.01751E-05					
-85	5.14387	6.15318E-05					
-84.9	5.16373	6.26487E-05					
-84.8	5.18355	6.38531E-05					
-84.7	5.2034	6.49284E-05					
-84.6	5.22322	6.63939E-05					
-84.5	5.24302	6.77725E-05					
-84.4	5.26281	6.8829E-05					
-84.3	5.28263	7.0044E-05					
-84.2	5.30241	7.14658E-05					
-84.1	5.3222	7.27763E-05					
-84	5.34196	7.38734E-05					
-83.9	5.36172	7.51259E-05					
-83.8	5.3815	7.65495E-05					
-83.7	5.40127	7.76427E-05					
-83.6	5.42102	7.89357E-05					
-83.5	5.44078	8.02306E-05					
-83.4	5.46055	8.15368E-05					
-83.3	5.48031	8.26901E-05					
-83.2	5.50005	8.39291E-05					
-83.1	5.5198	8.51469E-05					
-83	5.53954	8.65421E-05					
-82.9	5.55931	8.78439E-05					
-82.8	5.57904	8.91206E-05					
-82.7	5.5988	9.03165E-05					
-82.6	5.61852	9.16006E-05					
-82.5	5.63825	9.29572E-05					
-82.4	5.65801	9.42221E-05					
-82.3	5.67775	9.53531E-05					
-82.2	5.69748	9.65948E-05					
-82.1	5.71724	9.8001E-05					
-82	5.73697	9.92406E-05					
-81.9	5.75671	0.000100449					
-81.8	5.77645	0.000101712					
-81.7	5.79618	0.000103228					
-81.6	5.81587	0.000104387					
-81.5	5.83562	0.000105615					
-81.4	5.85537	0.000106797					
-81.3	5.8751	0.000108116					
-81.2	5.89486	0.000109502					
-81.1	5.91462	0.000110543					
-81	5.93437	0.000111871					
-80.9	5.95412	0.000113313					
-80.8	5.97388	0.00011456					
-80.7	5.99364	0.000115675					
-80.6	6.01337	0.000116783					
-80.5	6.03311	0.00011824					
-80.4	6.05286	0.000119547					
-80.3	6.07262	0.000120765					
-80.2	6.09237	0.000121888					
-80.1	6.11211	0.00012335					
-80	6.13185	0.000124486					
-79.9	6.15161	0.000125811					
-79.8	6.17138	0.00012701					
-79.7	6.19113	0.000128228					
-79.6	6.2109	0.00012964					
-79.5	6.23067	0.000130905					
-79.4	6.25042	0.000131942					
-79.3	6.27016	0.000133386					
-79.2	6.28989	0.000134725					
-79.1	6.30958	0.000135919					
-79	6.32929	0.000137091					
-78.9	6.34899	0.000138293					
-78.8	6.3687	0.000139812					
-78.7	6.38839	0.000140967					
-78.6	6.40809	0.000142075					
-78.5	6.42779	0.000143389					
-78.4	6.44749	0.000144831					
-78.3	6.46719	0.000145958					
-78.2	6.4869	0.000147126					
-78.1	6.50659	0.000148423					
-78	6.52629	0.000149723					
-77.9	6.54599	0.000151183					
-77.8	6.5657	0.000152261					
-77.7	6.58538	0.000153454					
-77.6	6.60508	0.000154857					
-77.5	6.62476	0.000156091					
-77.4	6.64445	0.000157364					
-77.3	6.66413	0.000158547					
-77.2	6.68379	0.000159758					
-77.1	6.70346	0.000161117					
-77	6.72316	0.000162434					
-76.9	6.74284	0.000163585					
-76.8	6.76253	0.000164857					
-76.7	6.78223	0.000166225					
-76.6	6.80191	0.000167427					
-76.5	6.82161	0.000168659					
-76.4	6.84129	0.000169824					
-76.3	6.86097	0.00017117					
-76.2	6.88067	0.00017241					
-76.1	6.90034	0.000173628					
-76	6.92003	0.000174927					
-75.9	6.9397	0.000176175					
-75.8	6.95937	0.000177502					
-75.7	6.97902	0.000178727					
-75.6	6.99869	0.000180021					
-75.5	7.01837	0.000181156					
-75.4	7.03804	0.000182587					
-75.3	7.05773	0.000183831					
-75.2	7.07742	0.00018512					
-75.1	7.09713	0.000186275					
-75	7.11683	0.000187655					
-74.9	7.1365	0.000188835					
-74.8	7.1562	0.000190108					
-74.7	7.17591	0.000191296					
-74.6	7.1956	0.000192592					
-74.5	7.21529	0.000194008					
-74.4	7.23497	0.00019512					
-74.3	7.25469	0.00019635					
-74.2	7.27438	0.000197708					
-74.1	7.29409	0.000198989					
-74	7.31377	0.000200189					
-73.9	7.33349	0.00020133					
-73.8	7.35321	0.000202673					
-73.7	7.37293	0.000204099					
-73.6	7.39265	0.000205205					
-73.5	7.41236	0.000206383					
-73.4	7.43207	0.000207639					
-73.3	7.45178	0.000208959					
-73.2	7.47149	0.000210213					
-73.1	7.49121	0.000211327					
-73	7.51092	0.000212517					
-72.9	7.53063	0.000213938					
-72.8	7.55036	0.000215221					
-72.7	7.57006	0.000216392					
-72.6	7.58977	0.000217563					
-72.5	7.6095	0.00021877					
-72.4	7.62919	0.00022017					
-72.3	7.64889	0.000221432					
-72.2	7.66859	0.000222592					
-72.1	7.68831	0.000223784					
-72	7.70801	0.000225078					
-71.9	7.72774	0.000226425					
-71.8	7.74742	0.000227475					
-71.7	7.76714	0.000228744					
-71.6	7.78683	0.000230066					
-71.5	7.80655	0.000231355					
-71.4	7.82627	0.000232353					
-71.3	7.84595	0.000233639					
-71.2	7.86565	0.000235046					
-71.1	7.88534	0.00023635					
-71	7.90504	0.000237482					
-70.9	7.92473	0.000238659					
-70.8	7.94443	0.000239965					
-70.7	7.96413	0.000241349					
-70.6	7.98381	0.000242449					
-70.5	8.00349	0.00024368					
-70.4	8.02318	0.000244891					
-70.3	8.04291	0.000246172					
-70.2	8.06262	0.000247488					
-70.1	8.08233	0.000248681					
-70	8.102	0.000249839					
-69.9	8.1217	0.000251114					
-69.8	8.14138	0.000252409					
-69.7	8.16105	0.000253504					
-69.6	8.18072	0.000254813					
-69.5	8.20043	0.000256099					
-69.4	8.22011	0.000257506					
-69.3	8.23981	0.000258561					
-69.2	8.25953	0.000259717					
-69.1	8.27921	0.000261137					
-69	8.29895	0.000262459					
-68.9	8.31866	0.00026357					
-68.8	8.33837	0.00026468					
-68.7	8.35811	0.000266078					
-68.6	8.37784	0.000267392					
-68.5	8.3976	0.000268693					
-68.4	8.41736	0.000269813					
-68.3	8.43713	0.000270992					
-68.2	8.45687	0.000272436					
-68.1	8.47661	0.000273602					
-68	8.49637	0.000274788					
-67.9	8.51616	0.000276061					
-67.8	8.53596	0.000277395					
-67.7	8.55576	0.000278671					
-67.6	8.57556	0.000279845					
-67.5	8.59536	0.000281059					
-67.4	8.61515	0.00028241					
-67.3	8.63496	0.00028366					
-67.2	8.65473	0.000284813					
-67.1	8.67452	0.000286132					
-67	8.69434	0.000287358					
-66.9	8.71409	0.000288695					
-66.8	8.73391	0.00028989					
-66.7	8.75371	0.000290985					
-66.6	8.77351	0.000292502					
-66.5	8.79334	0.000293733					
-66.4	8.81313	0.000294683					
-66.3	8.83294	0.000296076					
-66.2	8.85275	0.000297465					
-66.1	8.87254	0.000298726					
-66	8.89234	0.000299775					
-65.9	8.91212	0.000301031					
-65.8	8.93192	0.000302418					
-65.7	8.95169	0.000303686					
-65.6	8.97148	0.000304748					
-65.5	8.9913	0.000306068					
-65.4	9.01109	0.0003074					
-65.3	9.0309	0.000308603					
-65.2	9.05069	0.000309621					
-65.1	9.07047	0.00031104					
-65	9.09024	0.00031224					
-64.9	9.11002	0.000313473					
-64.8	9.12981	0.000314708					
-64.7	9.14958	0.000315874					
-64.6	9.16936	0.000317472					
-64.5	9.18912	0.000318617					
-64.4	9.20889	0.000319762					
-64.3	9.22867	0.000321322					
-64.2	9.24841	0.000322582					
-64.1	9.26816	0.000323715					
-64	9.28793	0.000325031					
-63.9	9.30771	0.000326321					
-63.8	9.32751	0.00032771					
-63.7	9.34727	0.000328918					
-63.6	9.36707	0.000330123					
-63.5	9.38686	0.000331592					
-63.4	9.40666	0.000332921					
-63.3	9.42644	0.000333955					
-63.2	9.44621	0.000335461					
-63.1	9.46603	0.000336739					
-63	9.48587	0.000338098					
-62.9	9.50571	0.000339228					
-62.8	9.52555	0.000340681					
-62.7	9.54538	0.000341998					
-62.6	9.5652	0.000343525					
-62.5	9.58504	0.000344576					
-62.4	9.60488	0.000345951					
-62.3	9.62472	0.000347363					
-62.2	9.64457	0.000348545					
-62.1	9.66444	0.000349896					
-62	9.68427	0.000351266					
-61.9	9.70413	0.000352688					
-61.8	9.72396	0.000354038					
-61.7	9.74383	0.000355207					
-61.6	9.76369	0.00035657					
-61.5	9.78352	0.000358042					
-61.4	9.80336	0.000359246					
-61.3	9.82321	0.000360577					
-61.2	9.8431	0.000361966					
-61.1	9.86296	0.000363272					
-61	9.8828	0.000364754					
-60.9	9.90264	0.000365912					
-60.8	9.92247	0.00036719					
-60.7	9.94232	0.000368671					
-60.6	9.96216	0.000369895					
-60.5	9.98201	0.000371157					
-60.4	10.00183	0.000372608					
-60.3	10.02165	0.000374098					
-60.2	10.04149	0.000375312					
-60.1	10.06129	0.000376597					
-60	10.08111	0.000377875					
-59.9	10.1009	0.000379378					
-59.8	10.1207	0.000380592					
-59.7	10.1405	0.00038175					
-59.6	10.16027	0.000383267					
-59.5	10.18007	0.000384689					
-59.4	10.19988	0.000385994					
-59.3	10.21967	0.000387174					
-59.2	10.23945	0.000388716					
-59.1	10.25922	0.00038995					
-59	10.27899	0.000391323					
-58.9	10.29876	0.000392563					
-58.8	10.31856	0.000393811					
-58.7	10.33835	0.000395311					
-58.6	10.35813	0.000396608					
-58.5	10.37789	0.000397821					
-58.4	10.39767	0.000399246					
-58.3	10.41747	0.000400671					
-58.2	10.43726	0.000401753					
-58.1	10.45704	0.000403289					
-58	10.47682	0.000404465					
-57.9	10.49663	0.000405974					
-57.8	10.5165	0.000407291					
-57.7	10.53631	0.000408495					
-57.6	10.55613	0.000410019					
-57.5	10.57594	0.000411334					
-57.4	10.59575	0.000412665					
-57.3	10.61557	0.000413829					
-57.2	10.6354	0.000415244					
-57.1	10.65522	0.000416642					
-57	10.67503	0.000417965					
-56.9	10.69486	0.000419193					
-56.8	10.71469	0.000420656					
-56.7	10.73448	0.000421994					
-56.6	10.7543	0.000423293					
-56.5	10.77411	0.000424608					
-56.4	10.79393	0.000425909					
-56.3	10.81374	0.000427281					
-56.2	10.83355	0.000428652					
-56.1	10.85333	0.000429952					
-56	10.87315	0.000431314					
-55.9	10.89298	0.000432747					
-55.8	10.91277	0.000434068					
-55.7	10.93255	0.000435243					
-55.6	10.95237	0.000436571					
-55.5	10.97214	0.000437908					
-55.4	10.99194	0.000439321					
-55.3	11.01174	0.000440634					
-55.2	11.03153	0.000442072					
-55.1	11.0513	0.000443425					
-55	11.07112	0.000444728					
-54.9	11.09092	0.000445858					
-54.8	11.1107	0.000447318					
-54.7	11.13047	0.000448849					
-54.6	11.15028	0.000449937					
-54.5	11.17004	0.000451273					
-54.4	11.18981	0.000452698					
-54.3	11.20959	0.000454005					
-54.2	11.22937	0.00045536					
-54.1	11.24916	0.000456683					
-54	11.26896	0.000458046					
-53.9	11.28874	0.000459536					
-53.8	11.30851	0.000460744					
-53.7	11.32831	0.000461903					
-53.6	11.34807	0.000463446					
-53.5	11.36784	0.000464718					
-53.4	11.38764	0.000466043					
-53.3	11.40742	0.000467291					
-53.2	11.42718	0.000468772					
-53.1	11.44696	0.000470073					
-53	11.46677	0.000471385					
-52.9	11.48653	0.000472507					
-52.8	11.50632	0.000474056					
-52.7	11.52612	0.000475403					
-52.6	11.54593	0.000476622					
-52.5	11.56575	0.000477886					
-52.4	11.58558	0.000479228					
-52.3	11.6054	0.000480821					
-52.2	11.62522	0.000481935					
-52.1	11.64503	0.000483171					
-52	11.66484	0.000484587					
-51.9	11.68467	0.000485946					
-51.8	11.70449	0.000487155					
-51.7	11.72432	0.00048849					
-51.6	11.74413	0.000489924					
-51.5	11.76397	0.00049121					
-51.4	11.78381	0.000492504					
-51.3	11.80365	0.000493804					
-51.2	11.82353	0.00049524					
-51.1	11.84339	0.00049653					
-51	11.86323	0.00049776					
-50.9	11.88307	0.000499134					
-50.8	11.90291	0.000500563					
-50.7	11.92274	0.000501751					
-50.6	11.94257	0.000502946					
-50.5	11.96241	0.000504476					
-50.4	11.98224	0.000505719					
-50.3	12.00206	0.000507079					
-50.2	12.02188	0.000508156					
-50.1	12.0417	0.000509738					
-50	12.0615	0.000511059					
-49.9	12.0813	0.000512263					
-49.8	12.10112	0.000513488					
-49.7	12.12091	0.000514963					
-49.6	12.1407	0.000516318					
-49.5	12.16048	0.000517388					
-49.4	12.18026	0.000518732					
-49.3	12.20003	0.000520131					
-49.2	12.2198	0.000521482					
-49.1	12.23955	0.000522685					
-49	12.2593	0.000524031					
-48.9	12.27905	0.000525408					
-48.8	12.29879	0.0005268					
-48.7	12.31853	0.000527874					
-48.6	12.33827	0.000529169					
-48.5	12.35801	0.000530632					
-48.4	12.37776	0.000531872					
-48.3	12.39748	0.00053319					
-48.2	12.41719	0.000534389					
-48.1	12.43693	0.000535757					
-48	12.45666	0.000537244					
-47.9	12.47641	0.000538467					
-47.8	12.49614	0.000539591					
-47.7	12.51587	0.000541023					
-47.6	12.53564	0.000542284					
-47.5	12.55541	0.000543515					
-47.4	12.57518	0.000544929					
-47.3	12.59495	0.000546289					
-47.2	12.61473	0.00054761					
-47.1	12.6345	0.000548741					
-47	12.65429	0.000550117					
-46.9	12.6741	0.000551409					
-46.8	12.69392	0.000552789					
-46.7	12.71376	0.000553911					
-46.6	12.7336	0.000555302					
-46.5	12.75344	0.000556615					
-46.4	12.77329	0.000557932					
-46.3	12.79314	0.000559012					
-46.2	12.81301	0.000560381					
-46.1	12.8329	0.000561668					
-46	12.85278	0.000562956					
-45.9	12.87267	0.000564112					
-45.8	12.89257	0.000565463					
-45.7	12.91245	0.000566852					
-45.6	12.93233	0.000568057					
-45.5	12.95223	0.000569239					
-45.4	12.97211	0.000570736					
-45.3	12.99199	0.000571926					
-45.2	13.0119	0.000573257					
-45.1	13.03179	0.000574425					
-45	13.0517	0.000575826					
-44.9	13.07157	0.000577205					
-44.8	13.09145	0.000578488					
-44.7	13.11129	0.000579588					
-44.6	13.13115	0.000581029					
-44.5	13.15101	0.000582378					
-44.4	13.17088	0.000583509					
-44.3	13.19074	0.000584834					
-44.2	13.21055	0.000586154					
-44.1	13.23041	0.000587356					
-44	13.25026	0.000588705					
-43.9	13.27007	0.000589848					
-43.8	13.28989	0.000591301					
-43.7	13.3097	0.000592525					
-43.6	13.32952	0.00059372					
-43.5	13.34934	0.000595006					
-43.4	13.36913	0.00059645					
-43.3	13.38894	0.000597679					
-43.2	13.40875	0.000599003					
-43.1	13.42855	0.000600044					
-43	13.44836	0.000601467					
-42.9	13.46814	0.000602809					
-42.8	13.48795	0.000603982					
-42.7	13.50776	0.000605273					
-42.6	13.52758	0.000606625					
-42.5	13.54739	0.00060789					
-42.4	13.56719	0.000609211					
-42.3	13.58699	0.000610329					
-42.2	13.60679	0.000611716					
-42.1	13.62663	0.000613021					
-42	13.64645	0.000614286					
-41.9	13.66628	0.000615469					
-41.8	13.68612	0.000616846					
-41.7	13.70598	0.000618168					
-41.6	13.72582	0.000619313					
-41.5	13.74568	0.000620674					
-41.4	13.76553	0.000622061					
-41.3	13.78539	0.000623317					
-41.2	13.80524	0.000624564					
-41.1	13.82508	0.000625707					
-41	13.84492	0.000627102					
-40.9	13.86477	0.000628464					
-40.8	13.88467	0.000629744					
-40.7	13.90453	0.000630866					
-40.6	13.92439	0.000632211					
-40.5	13.94424	0.000633551					
-40.4	13.96411	0.000634775					
-40.3	13.98397	0.000636074					
-40.2	14.00385	0.000637376					
-40.1	14.02374	0.000638725					
-40	14.04362	0.000639855					
-39.9	14.06349	0.000641139					
-39.8	14.08337	0.00064265					
-39.7	14.10326	0.000643775					
-39.6	14.12313	0.000645062					
-39.5	14.14301	0.000646294					
-39.4	14.1629	0.000647716					
-39.3	14.18277	0.000648889					
-39.2	14.20265	0.000650191					
-39.1	14.22254	0.00065135					
-39	14.24242	0.000652801					
-38.9	14.2623	0.000654095					
-38.8	14.28217	0.000655283					
-38.7	14.30204	0.000656656					
-38.6	14.32191	0.000657935					
-38.5	14.34176	0.000659189					
-38.4	14.36164	0.000660451					
-38.3	14.38152	0.000661577					
-38.2	14.4014	0.00066293					
-38.1	14.42126	0.000664208					
-38	14.44113	0.000665382					
-37.9	14.46098	0.000666727					
-37.8	14.48083	0.000668079					
-37.7	14.5007	0.000669251					
-37.6	14.52055	0.000670658					
-37.5	14.54043	0.000671913					
-37.4	14.56029	0.000673238					
-37.3	14.58016	0.0006746					
-37.2	14.60004	0.000675819					
-37.1	14.6199	0.0006772					
-37	14.63978	0.000678581					
-36.9	14.65966	0.000679819					
-36.8	14.67955	0.000681043					
-36.7	14.69946	0.000682441					
-36.6	14.71935	0.000683934					
-36.5	14.73925	0.000685165					
-36.4	14.75917	0.000686285					
-36.3	14.77906	0.000687718					
-36.2	14.79893	0.000689262					
-36.1	14.8188	0.000690488					
-36	14.83869	0.000691607					
-35.9	14.85859	0.000693067					
-35.8	14.87848	0.000694441					
-35.7	14.89835	0.000695761					
-35.6	14.91822	0.000697019					
-35.5	14.93811	0.000698392					
-35.4	14.95799	0.000699954					
-35.3	14.97787	0.00070114					
-35.2	14.99776	0.000702366					
-35.1	15.01765	0.000703844					
-35	15.03753	0.000705215					
-34.9	15.05741	0.000706379					
-34.8	15.07731	0.000707676					
-34.7	15.09717	0.000709268					
-34.6	15.11704	0.000710553					
-34.5	15.1369	0.000711801					
-34.4	15.15679	0.000713101					
-34.3	15.17666	0.000714494					
-34.2	15.19652	0.000715782					
-34.1	15.21645	0.000717054					
-34	15.23634	0.000718471					
-33.9	15.25622	0.000719978					
-33.8	15.27606	0.000721197					
-33.7	15.29595	0.000722505					
-33.6	15.31586	0.000723887					
-33.5	15.33576	0.000725341					
-33.4	15.35561	0.000726739					
-33.3	15.3755	0.000727826					
-33.2	15.39539	0.000729149					
-33.1	15.41525	0.000730698					
-33	15.43514	0.000731958					
-32.9	15.45503	0.000733218					
-32.8	15.47491	0.000734654					
-32.7	15.49478	0.000736096					
-32.6	15.51468	0.000737311					
-32.5	15.53456	0.000738678					
-32.4	15.55446	0.000740005					
-32.3	15.57433	0.00074151					
-32.2	15.5942	0.000742739					
-32.1	15.6141	0.000744042					
-32	15.63398	0.00074535					
-31.9	15.65391	0.000746752					
-31.8	15.6738	0.000748114					
-31.7	15.69372	0.0007494					
-31.6	15.71361	0.000750783					
-31.5	15.73352	0.000752233					
-31.4	15.75344	0.000753433					
-31.3	15.77336	0.000754706					
-31.2	15.79324	0.000756248					
-31.1	15.81313	0.000757657					
-31	15.83304	0.000758754					
-30.9	15.85292	0.000760117					
-30.8	15.8728	0.000761704					
-30.7	15.8927	0.000762836					
-30.6	15.9126	0.000764265					
-30.5	15.93249	0.000765489					
-30.4	15.95236	0.000766935					
-30.3	15.97224	0.000768319					
-30.2	15.99215	0.000769495					
-30.1	16.01207	0.000770911					
-30	16.03197	0.000772262					
-29.9	16.05188	0.000773515					
-29.8	16.07175	0.000774807					
-29.7	16.09166	0.000776325					
-29.6	16.11156	0.000777595					
-29.5	16.13148	0.000779052					
-29.4	16.15139	0.000780277					
-29.3	16.17129	0.000781628					
-29.2	16.1912	0.000783085					
-29.1	16.21112	0.000784441					
-29	16.23106	0.000785495					
-28.9	16.251	0.000787069					
-28.8	16.27091	0.000788379					
-28.7	16.29085	0.000789611					
-28.6	16.31082	0.000791044					
-28.5	16.33077	0.000792381					
-28.4	16.35073	0.000793807					
-28.3	16.37072	0.000795019					
-28.2	16.39069	0.000796413					
-28.1	16.41065	0.000797758					
-28	16.43061	0.000799101					
-27.9	16.45058	0.00080034					
-27.8	16.47054	0.000801702					
-27.7	16.49053	0.000803142					
-27.6	16.51048	0.000804534					
-27.5	16.53043	0.000805773					
-27.4	16.55036	0.000807022					
-27.3	16.57033	0.000808443					
-27.2	16.59031	0.00080974					
-27.1	16.61028	0.000810987					
-27	16.63026	0.000812401					
-26.9	16.65024	0.000813805					
-26.8	16.67019	0.000815008					
-26.7	16.69017	0.000816435					
-26.6	16.71015	0.000817669					
-26.5	16.73008	0.000819076					
-26.4	16.75002	0.000820394					
-26.3	16.76998	0.000821534					
-26.2	16.78993	0.00082297					
-26.1	16.8099	0.000824297					
-26	16.82986	0.000825647					
-25.9	16.84982	0.000826842					
-25.8	16.86975	0.000828156					
-25.7	16.88968	0.000829556					
-25.6	16.90963	0.00083084					
-25.5	16.92958	0.000832089					
-25.4	16.94951	0.000833396					
-25.3	16.96946	0.000834885					
-25.2	16.98936	0.000836194					
-25.1	17.00927	0.000837396					
-25	17.02918	0.000838676					
-24.9	17.0491	0.000840008					
-24.8	17.06903	0.000841321					
-24.7	17.08897	0.000842569					
-24.6	17.10889	0.000843867					
-24.5	17.12882	0.000845267					
-24.4	17.14876	0.000846611					
-24.3	17.16868	0.00084783					
-24.2	17.18859	0.000849128					
-24.1	17.20848	0.000850527					
-24	17.2284	0.000851774					
-23.9	17.24829	0.000853027					
-23.8	17.26822	0.000854309					
-23.7	17.28816	0.000855756					
-23.6	17.30811	0.000857026					
-23.5	17.32801	0.000858303					
-23.4	17.34795	0.000859515					
-23.3	17.36791	0.000860969					
-23.2	17.38786	0.000862055					
-23.1	17.40782	0.000863463					
-23	17.42779	0.000864659					
-22.9	17.44774	0.000865986					
-22.8	17.46768	0.000867447					
-22.7	17.48762	0.000868628					
-22.6	17.50755	0.000869753					
-22.5	17.52749	0.000871175					
-22.4	17.54743	0.000872477					
-22.3	17.56741	0.00087385					
-22.2	17.58736	0.000875012					
-22.1	17.60734	0.000876273					
-22	17.62731	0.00087781					
-21.9	17.64728	0.000879011					
-21.8	17.66725	0.000880229					
-21.7	17.68721	0.000881426					
-21.6	17.70718	0.000882904					
-21.5	17.72716	0.000884112					
-21.4	17.74714	0.000885329					
-21.3	17.76714	0.00088667					
-21.2	17.78715	0.000888004					
-21.1	17.80712	0.000889327					
-21	17.82713	0.00089043					
-20.9	17.84713	0.000891801					
-20.8	17.86713	0.000893226					
-20.7	17.88712	0.000894358					
-20.6	17.90712	0.000895718					
-20.5	17.92715	0.000896852					
-20.4	17.94716	0.000898282					
-20.3	17.96718	0.000899601					
-20.2	17.98716	0.000900886					
-20.1	18.00717	0.000902065					
-20	18.02718	0.000903318					
-19.9	18.04717	0.000904617					
-19.8	18.06716	0.00090599					
-19.7	18.08714	0.000907052					
-19.6	18.10712	0.000908485					
-19.5	18.12712	0.000909829					
-19.4	18.14709	0.000911029					
-19.3	18.16707	0.000912164					
-19.2	18.18701	0.000913584					
-19.1	18.20699	0.000914795					
-19	18.22696	0.000916011					
-18.9	18.24691	0.000917346					
-18.8	18.26685	0.000918378					
-18.7	18.28682	0.000919982					
-18.6	18.30676	0.000921227					
-18.5	18.3267	0.0009223					
-18.4	18.34662	0.000923593					
-18.3	18.36655	0.000924888					
-18.2	18.38647	0.000926259					
-18.1	18.4064	0.000927342					
-18	18.42634	0.00092856					
-17.9	18.44624	0.00092999					
-17.8	18.46617	0.000931289					
-17.7	18.48608	0.000932473					
-17.6	18.50598	0.000933652					
-17.5	18.52588	0.000934945					
-17.4	18.54576	0.0009362					
-17.3	18.56566	0.000937443					
-17.2	18.58557	0.000938564					
-17.1	18.60547	0.000939958					
-17	18.62534	0.000941341					
-16.9	18.64522	0.000942479					
-16.8	18.66512	0.000943629					
-16.7	18.68498	0.000944963					
-16.6	18.70485	0.000946179					
-16.5	18.72474	0.000947509					
-16.4	18.74465	0.00094865					
-16.3	18.76455	0.000950003					
-16.2	18.78446	0.000951494					
-16.1	18.80438	0.000952425					
-16	18.82429	0.000953686					
-15.9	18.84419	0.000954918					
-15.8	18.86411	0.000956218					
-15.7	18.88405	0.000957556					
-15.6	18.90401	0.000958609					
-15.5	18.92397	0.000959934					
-15.4	18.94393	0.000961337					
-15.3	18.96391	0.00096256					
-15.2	18.98389	0.00096372					
-15.1	19.00386	0.000965028					
-15	19.02388	0.000966327					
-14.9	19.0439	0.000967618					
-14.8	19.0639	0.000968782					
-14.7	19.08391	0.000969935					
-14.6	19.10395	0.000971468					
-14.5	19.12399	0.000972677					
-14.4	19.14401	0.000973699					
-14.3	19.16403	0.000975092					
-14.2	19.18407	0.000976378					
-14.1	19.20408	0.000977741					
-14	19.22408	0.000978888					
-13.9	19.2441	0.000980082					
-13.8	19.26415	0.000981577					
-13.7	19.28417	0.00098283					
-13.6	19.30418	0.000983885					
-13.5	19.3242	0.000985193					
-13.4	19.34421	0.000986459					
-13.3	19.3642	0.000987852					
-13.2	19.38421	0.000989					
-13.1	19.4042	0.000990258					
-13	19.42417	0.000991538					
-12.9	19.44414	0.000992825					
-12.8	19.46412	0.000994079					
-12.7	19.48409	0.000995196					
-12.6	19.50406	0.000996519					
-12.5	19.52402	0.000997839					
-12.4	19.54398	0.000999094					
-12.3	19.56394	0.001000276					
-12.2	19.58391	0.001001485					
-12.1	19.60387	0.001002927					
-12	19.62384	0.001004073					
-11.9	19.64381	0.001005365					
-11.8	19.66378	0.001006585					
-11.7	19.68372	0.001007755					
-11.6	19.70365	0.001009085					
-11.5	19.72358	0.001010134					
-11.4	19.74352	0.001011388					
-11.3	19.76345	0.001012901					
-11.2	19.78337	0.001014042					
-11.1	19.80328	0.001015256					
-11	19.8232	0.001016307					
-10.9	19.84312	0.001017642					
-10.8	19.86305	0.001018878					
-10.7	19.88298	0.001020147					
-10.6	19.90291	0.001021254					
-10.5	19.92284	0.00102252					
-10.4	19.94277	0.001023903					
-10.3	19.96269	0.001025028					
-10.2	19.9826	0.001026191					
-10.1	20.00251	0.001027404					
-10	20.02245	0.001028732					
-9.9	20.04235	0.001030197					
-9.8	20.06226	0.001031239					
-9.7	20.08219	0.001032541					
-9.6	20.10212	0.001033865					
-9.5	20.12206	0.0010352					
-9.4	20.142	0.001036461					
-9.3	20.16192	0.001037589					
-9.2	20.18187	0.001038863					
-9.1	20.20181	0.001040168					
-9	20.22178	0.001041445					
-8.9	20.24173	0.001042733					
-8.8	20.26169	0.00104399					
-8.7	20.28163	0.001045343					
-8.6	20.30157	0.001046559					
-8.5	20.32155	0.001047715					
-8.4	20.34151	0.00104913					
-8.3	20.36148	0.001050452					
-8.2	20.38147	0.001051817					
-8.1	20.40146	0.00105301					
-8	20.42144	0.001054435					
-7.9	20.44141	0.001055688					
-7.8	20.4614	0.001057015					
-7.7	20.48138	0.001058179					
-7.6	20.50135	0.001059424					
-7.5	20.52132	0.001060875					
-7.4	20.54132	0.001062133					
-7.3	20.5613	0.001063494					
-7.2	20.5813	0.001064724					
-7.1	20.60129	0.001065993					
-7	20.62127	0.001067373					
-6.9	20.64125	0.001068536					
-6.8	20.66122	0.001069787					
-6.7	20.68122	0.001071171					
-6.6	20.7012	0.001072586					
-6.5	20.72117	0.001073773					
-6.4	20.74113	0.001075063					
-6.3	20.7611	0.001076394					
-6.2	20.78106	0.001077557					
-6.1	20.80102	0.001079008					
-6	20.82097	0.001080106					
-5.9	20.84093	0.001081394					
-5.8	20.8609	0.001082842					
-5.7	20.88086	0.001084068					
-5.6	20.90082	0.001085392					
-5.5	20.92077	0.001086562					
-5.4	20.94074	0.00108791					
-5.3	20.9607	0.00108924					
-5.2	20.98064	0.00109035					
-5.1	21.00057	0.001091683					
-5	21.02053	0.001093075					
-4.9	21.0405	0.001094417					
-4.8	21.06044	0.001095588					
-4.7	21.08041	0.001096851					
-4.6	21.10034	0.001098194					
-4.5	21.1203	0.001099464					
-4.4	21.14026	0.00110069					
-4.3	21.16022	0.001101841					
-4.2	21.18017	0.001103253					
-4.1	21.20013	0.00110458					
-4	21.22009	0.001105906					
-3.9	21.24005	0.001107016					
-3.8	21.26002	0.001108225					
-3.7	21.27999	0.001109636					
-3.6	21.29998	0.001110936					
-3.5	21.31996	0.001112015					
-3.4	21.33991	0.001113385					
-3.3	21.35987	0.001114753					
-3.2	21.37985	0.001116093					
-3.1	21.39983	0.001117375					
-3	21.41981	0.001118417					
-2.9	21.43976	0.001119809					
-2.8	21.45974	0.001121063					
-2.7	21.47971	0.001122251					
-2.6	21.4997	0.001123543					
-2.5	21.51971	0.001124994					
-2.4	21.53969	0.001126253					
-2.3	21.55967	0.001127376					
-2.2	21.57967	0.00112865					
-2.1	21.59963	0.001129995					
-2	21.61963	0.001131258					
-1.9	21.63961	0.001132379					
-1.8	21.65956	0.001133661					
-1.7	21.67955	0.001134988					
-1.6	21.69952	0.001136409					
-1.5	21.71947	0.001137672					
-1.4	21.73945	0.001138715					
-1.3	21.75944	0.001140108					
-1.2	21.7794	0.001141366					
-1.1	21.79937	0.001142558					
-1	21.81935	0.001143789					
-0.9	21.83935	0.001145116					
-0.8	21.85935	0.001146503					
-0.7	21.87933	0.001147737					
-0.6	21.89931	0.001148874					
-0.5	21.91928	0.001150106					
-0.4	21.93923	0.001151501					
-0.3	21.95921	0.001152685					
-0.2	21.97917	0.001153768					
-0.1	21.99912	0.001155176					
0	22.01907	0.001156535					
0.1	22.03901	0.001157859					
0.2	22.05897	0.001158896					
0.3	22.07893	0.001160041					
0.4	22.09887	0.001161476					
0.5	22.11882	0.001162607					
0.6	22.13878	0.001163862					
0.7	22.15875	0.001165157					
0.8	22.17872	0.001166371					
0.9	22.19867	0.001167768					
1	22.21863	0.001168948					
1.1	22.23855	0.001170082					
1.2	22.25849	0.00117147					
1.3	22.27847	0.001172728					
1.4	22.29844	0.001173894					
1.5	22.31843	0.001175219					
1.6	22.3384	0.001176412					
1.7	22.35838	0.001177712					
1.8	22.37835	0.001178926					
1.9	22.39833	0.001180047					
2	22.41833	0.001181357					
2.1	22.43835	0.001182613					
2.2	22.45836	0.001183839					
2.3	22.47838	0.001184998					
2.4	22.49838	0.001186323					
2.5	22.51839	0.00118768					
2.6	22.53841	0.001188794					
2.7	22.55844	0.001189942					
2.8	22.57845	0.00119126					
2.9	22.59848	0.001192508					
3	22.61852	0.00119373					
3.1	22.63857	0.001194947					
3.2	22.65864	0.001196279					
3.3	22.67869	0.001197526					
3.4	22.6987	0.001198805					
3.5	22.71873	0.001199797					
3.6	22.73875	0.00120113					
3.7	22.75878	0.001202488					
3.8	22.77882	0.001203607					
3.9	22.79884	0.001204933					
4	22.81887	0.001206008					
4.1	22.83888	0.001207428					
4.2	22.85889	0.001208664					
4.3	22.8789	0.001209652					
4.4	22.89887	0.001210905					
4.5	22.91888	0.001212328					
4.6	22.93888	0.001213489					
4.7	22.95885	0.001214658					
4.8	22.97881	0.001215924					
4.9	22.99874	0.001217211					
5	23.01871	0.001218484					
5.1	23.03864	0.001219544					
5.2	23.05858	0.001220631					
5.3	23.07851	0.001222015					
5.4	23.09843	0.001223316					
5.5	23.11833	0.001224461					
5.6	23.13826	0.001225728					
5.7	23.15818	0.001226889					
5.8	23.17806	0.001228155					
5.9	23.19798	0.001229342					
6	23.21789	0.001230359					
6.1	23.2378	0.001231705					
6.2	23.25773	0.00123285					
6.3	23.27765	0.001234128					
6.4	23.29757	0.001235312					
6.5	23.31748	0.001236321					
6.6	23.33739	0.001237749					
6.7	23.35731	0.001238956					
6.8	23.37723	0.001240017					
6.9	23.39714	0.001241244					
7	23.41707	0.001242526					
7.1	23.43698	0.00124379					
7.2	23.45691	0.001244991					
7.3	23.47683	0.001246071					
7.4	23.49675	0.001247326					
7.5	23.51669	0.001248539					
7.6	23.53662	0.001249794					
7.7	23.55655	0.001250848					
7.8	23.5765	0.00125214					
7.9	23.59645	0.001253462					
8	23.61637	0.001254603					
8.1	23.63628	0.001255797					
8.2	23.65623	0.001256779					
8.3	23.67614	0.001258164					
8.4	23.69608	0.001259356					
8.5	23.71602	0.001260492					
8.6	23.73601	0.00126168					
8.7	23.75596	0.00126299					
8.8	23.77594	0.001264246					
8.9	23.79591	0.001265341					
9	23.8159	0.001266449					
9.1	23.8359	0.001267611					
9.2	23.85588	0.00126895					
9.3	23.87589	0.001270129					
9.4	23.89586	0.001271149					
9.5	23.91583	0.001272431					
9.6	23.9358	0.001273692					
9.7	23.95581	0.001274762					
9.8	23.9758	0.001275772					
9.9	23.99578	0.001277002					
10	24.01578	0.001278236					
10.1	24.03578	0.001279373					
10.2	24.05578	0.001280441					
10.3	24.07576	0.001281675					
10.4	24.09576	0.001282907					
10.5	24.11575	0.001284114					
10.6	24.13571	0.001285078					
10.7	24.15568	0.001286248					
10.8	24.17565	0.001287539					
10.9	24.19561	0.001288642					
11	24.21558	0.001289906					
11.1	24.23554	0.001290868					
11.2	24.25549	0.001292086					
11.3	24.27548	0.00129346					
11.4	24.29546	0.001294362					
11.5	24.31543	0.001295541					
11.6	24.33542	0.001296837					
11.7	24.3554	0.00129798					
11.8	24.37535	0.001299018					
11.9	24.39533	0.001300148					
12	24.41529	0.001301354					
12.1	24.43526	0.001302574					
12.2	24.45524	0.001303708					
12.3	24.47522	0.001304628					
12.4	24.49519	0.001305765					
12.5	24.51514	0.001307142					
12.6	24.53512	0.001308355					
12.7	24.55509	0.001309347					
12.8	24.57504	0.00131051					
12.9	24.59499	0.00131172					
13	24.61498	0.001312885					
13.1	24.63494	0.001313891					
13.2	24.65491	0.001315099					
13.3	24.67487	0.001316309					
13.4	24.69483	0.001317489					
13.5	24.71478	0.001318561					
13.6	24.73476	0.001319694					
13.7	24.75471	0.001320918					
13.8	24.77469	0.001321993					
13.9	24.79464	0.001323048					
14	24.81458	0.001324211					
14.1	24.83454	0.001325349					
14.2	24.85449	0.001326659					
14.3	24.87442	0.001327743					
14.4	24.89438	0.001328785					
14.5	24.91434	0.001329989					
14.6	24.93433	0.001331167					
14.7	24.95429	0.001332137					
14.8	24.97425	0.001333253					
14.9	24.99425	0.001334486					
15	25.01422	0.00133576					
15.1	25.03419	0.001336807					
15.2	25.0542	0.001337785					
15.3	25.07418	0.001339001					
15.4	25.09417	0.001340355					
15.5	25.11415	0.001341247					
15.6	25.13415	0.001342318					
15.7	25.15415	0.001343595					
15.8	25.17417	0.001344708					
15.9	25.19417	0.001345947					
16	25.21419	0.001346903					
16.1	25.23422	0.001347988					
16.2	25.25424	0.00134918					
16.3	25.27427	0.001350333					
16.4	25.29431	0.001351329					
16.5	25.31433	0.001352422					
16.6	25.33436	0.00135367					
16.7	25.35439	0.001354768					
16.8	25.37443	0.001355816					
16.9	25.39446	0.001356965					
17	25.41448	0.001358207					
17.1	25.43449	0.00135928					
17.2	25.45449	0.001360281					
17.3	25.47447	0.001361385					
17.4	25.49446	0.001362683					
17.5	25.51445	0.001363788					
17.6	25.53442	0.001364763					
17.7	25.5544	0.001365878					
17.8	25.57438	0.001367094					
17.9	25.59433	0.001368193					
18	25.61431	0.001369168					
18.1	25.63428	0.001370421					
18.2	25.65425	0.001371434					
18.3	25.67422	0.001372631					
18.4	25.69419	0.001373753					
18.5	25.71415	0.001374723					
18.6	25.73411	0.001375966					
18.7	25.75406	0.001377039					
18.8	25.774	0.001377981					
18.9	25.79395	0.001379132					
19	25.81392	0.001380125					
19.1	25.83388	0.001381378					
19.2	25.85386	0.001382392					
19.3	25.87384	0.001383458					
19.4	25.89382	0.001384541					
19.5	25.9138	0.001385762					
19.6	25.93378	0.001386922					
19.7	25.95376	0.001387929					
19.8	25.97375	0.001389073					
19.9	25.99374	0.001390335					
20	26.01373	0.001391458					
20.1	26.03373	0.001392459					
20.2	26.05374	0.00139361					
20.3	26.07373	0.001394867					
20.4	26.09372	0.001395993					
20.5	26.11374	0.001397006					
20.6	26.13374	0.001398084					
20.7	26.15376	0.001399314					
20.8	26.17377	0.001400538					
20.9	26.19376	0.001401572					
21	26.21374	0.001402623					
21.1	26.23372	0.001403821					
21.2	26.25371	0.00140495					
21.3	26.2737	0.001406092					
21.4	26.29371	0.001407098					
21.5	26.31374	0.001408356					
21.6	26.33379	0.001409611					
21.7	26.35381	0.001410692					
21.8	26.37382	0.001411699					
21.9	26.39384	0.00141292					
22	26.41387	0.001413971					
22.1	26.43389	0.001415113					
22.2	26.45389	0.001416243					
22.3	26.47389	0.001417305					
22.4	26.4939	0.001418581					
22.5	26.51391	0.001419775					
22.6	26.53391	0.001420781					
22.7	26.55391	0.001421879					
22.8	26.5739	0.001423113					
22.9	26.59392	0.001424287					
23	26.61393	0.001425381					
23.1	26.63395	0.001426565					
23.2	26.65399	0.00142766					
23.3	26.674	0.001428896					
23.4	26.694	0.001429923					
23.5	26.714	0.001430929					
23.6	26.734	0.001432143					
23.7	26.754	0.001433405					
23.8	26.77402	0.001434532					
23.9	26.79402	0.001435556					
24	26.81398	0.001436678					
24.1	26.83396	0.001437838					
24.2	26.85394	0.001439					
24.3	26.87393	0.001439985					
24.4	26.89391	0.001441035					
24.5	26.91388	0.001442351					
24.6	26.93383	0.0014436					
24.7	26.9538	0.001444578					
24.8	26.97375	0.001445502					
24.9	26.99372	0.001446839					
25	27.01368	0.001447949					
25.1	27.03364	0.001449032					
25.2	27.05362	0.001450034					
25.3	27.07357	0.001451161					
25.4	27.09355	0.001452426					
25.5	27.11348	0.001453423					
25.6	27.13342	0.001454508					
25.7	27.15336	0.001455595					
25.8	27.17331	0.001456832					
25.9	27.19325	0.001457999					
26	27.2132	0.001459038					
26.1	27.23321	0.001460092					
26.2	27.25319	0.001461366					
26.3	27.27317	0.001462382					
26.4	27.29317	0.001463394					
26.5	27.31316	0.001464605					
26.6	27.33316	0.001465666					
26.7	27.35316	0.001466752					
26.8	27.37317	0.001467755					
26.9	27.39319	0.001468892					
27	27.4132	0.001470087					
27.1	27.43322	0.001471239					
27.2	27.4532	0.001472178					
27.3	27.47322	0.001473382					
27.4	27.49321	0.00147451					
27.5	27.51323	0.001475646					
27.6	27.53326	0.001476785					
27.7	27.55326	0.001477684					
27.8	27.57329	0.001478936					
27.9	27.59327	0.001480117					
28	27.61329	0.001481088					
28.1	27.6333	0.001482133					
28.2	27.65332	0.001483181					
28.3	27.67332	0.0014844					
28.4	27.69333	0.001485332					
28.5	27.71332	0.001486357					
28.6	27.73333	0.001487664					
28.7	27.75334	0.00148877					
28.8	27.77335	0.001489815					
28.9	27.79334	0.001490868					
29	27.81336	0.001491908					
29.1	27.83335	0.001493041					
29.2	27.85335	0.001494178					
29.3	27.87337	0.001495144					
29.4	27.89337	0.001496331					
29.5	27.91339	0.001497373					
29.6	27.93338	0.001498422					
29.7	27.9534	0.001499488					
29.8	27.9734	0.001500635					
29.9	27.9934	0.001501534					
30	28.01341	0.001502726					
30.1	28.03341	0.001503629					
30.2	28.05338	0.001504818					
30.3	28.07336	0.001506067					
30.4	28.09333	0.001506965					
30.5	28.11329	0.001508019					
30.6	28.13329	0.001508995					
30.7	28.15328	0.001510174					
30.8	28.17326	0.001511448					
30.9	28.19324	0.001512309					
31	28.21322	0.001513235					
31.1	28.23318	0.001514716					
31.2	28.25318	0.001515747					
31.3	28.27316	0.001516601					
31.4	28.29313	0.001517594					
31.5	28.31312	0.001518731					
31.6	28.33309	0.001519806					
31.7	28.35308	0.001520798					
31.8	28.37306	0.001521773					
31.9	28.39304	0.001522992					
32	28.41299	0.001523982					
32.1	28.43297	0.001525046					
32.2	28.45296	0.001526011					
32.3	28.47295	0.001527072					
32.4	28.49294	0.001528285					
32.5	28.51295	0.00152924					
32.6	28.53295	0.001530199					
32.7	28.55293	0.001531302					
32.8	28.57293	0.00153241					
32.9	28.59294	0.001533433					
33	28.61295	0.001534386					
33.1	28.63293	0.001535314					
33.2	28.65293	0.001536532					
33.3	28.67295	0.001537537					
33.4	28.69298	0.001538389					
33.5	28.71298	0.001539524					
33.6	28.73296	0.00154066					
33.7	28.75296	0.001541612					
33.8	28.77297	0.001542632					
33.9	28.79294	0.001543645					
34	28.81295	0.001544724					
34.1	28.83296	0.001545683					
34.2	28.85297	0.001546639					
34.3	28.87296	0.001547635					
34.4	28.89296	0.00154879					
34.5	28.91297	0.001549776					
34.6	28.93297	0.001550765					
34.7	28.95299	0.001551778					
34.8	28.97302	0.001552859					
34.9	28.99304	0.00155395					
35	29.01306	0.001554837					
35.1	29.03311	0.001555823					
35.2	29.05313	0.001556871					
35.3	29.07316	0.00155799					
35.4	29.09314	0.001558965					
35.5	29.11314	0.001559784					
35.6	29.13315	0.001560874					
35.7	29.15319	0.001562093					
35.8	29.1732	0.001563033					
35.9	29.19322	0.001563963					
36	29.21328	0.001564888					
36.1	29.23329	0.001566099					
36.2	29.25329	0.001567164					
36.3	29.27331	0.001568027					
36.4	29.29333	0.001568959					
36.5	29.31331	0.001570068					
36.6	29.33328	0.00157111					
36.7	29.35324	0.001572013					
36.8	29.37319	0.001573139					
36.9	29.39313	0.001574114					
37	29.41308	0.001575166					
37.1	29.43302	0.0015761					
37.2	29.45297	0.001576954					
37.3	29.47291	0.001578161					
37.4	29.49287	0.001579169					
37.5	29.51283	0.001580133					
37.6	29.53277	0.001581014					
37.7	29.55272	0.001581991					
37.8	29.57265	0.001583099					
37.9	29.59262	0.001583987					
38	29.61257	0.001584953					
38.1	29.63252	0.001586051					
38.2	29.6525	0.001587107					
38.3	29.67246	0.001588099					
38.4	29.69244	0.001588959					
38.5	29.71243	0.001590002					
38.6	29.73243	0.001591047					
38.7	29.75242	0.001591982					
38.8	29.77241	0.001592896					
38.9	29.79241	0.001593974					
39	29.8124	0.001595107					
39.1	29.83242	0.001596056					
39.2	29.85241	0.001596851					
39.3	29.87239	0.001597857					
39.4	29.89238	0.001598996					
39.5	29.91236	0.001599917					
39.6	29.93235	0.00160086					
39.7	29.95235	0.001601829					
39.8	29.97235	0.001602945					
39.9	29.99233	0.001603913					
40	30.0123	0.001604752					
40.1	30.03227	0.00160568					
40.2	30.05223	0.001606767					
40.3	30.07219	0.001607898					
40.4	30.09215	0.001608753					
40.5	30.11211	0.001609681					
40.6	30.13206	0.001610592					
40.7	30.15203	0.001611676					
40.8	30.17199	0.001612819					
40.9	30.19195	0.001613493					
41	30.21191	0.001614528					
41.1	30.23187	0.00161563					
41.2	30.25183	0.001616517					
41.3	30.27178	0.001617382					
41.4	30.29173	0.00161853					
41.5	30.3117	0.001619454					
41.6	30.33168	0.00162039					
41.7	30.35163	0.00162142					
41.8	30.37159	0.001622239					
41.9	30.39154	0.001623239					
42	30.4115	0.001624276					
42.1	30.43147	0.001625189					
42.2	30.45144	0.001626068					
42.3	30.47141	0.001626976					
42.4	30.49138	0.001627977					
42.5	30.51134	0.001628992					
42.6	30.5313	0.001629778					
42.7	30.55126	0.001630811					
42.8	30.57124	0.001631817					
42.9	30.5912	0.001632672					
43	30.61118	0.001633617					
43.1	30.63115	0.001634572					
43.2	30.6511	0.001635613					
43.3	30.67105	0.001636598					
43.4	30.69102	0.001637358					
43.5	30.71099	0.001638294					
43.6	30.73095	0.001639255					
43.7	30.75091	0.001640297					
43.8	30.77087	0.001641153					
43.9	30.79085	0.001641871					
44	30.81082	0.00164301					
44.1	30.83081	0.001643996					
44.2	30.85078	0.001644853					
44.3	30.87074	0.001645701					
44.4	30.89071	0.001646676					
44.5	30.91068	0.001647584					
44.6	30.93068	0.001648615					
44.7	30.95066	0.001649337					
44.8	30.97065	0.001650308					
44.9	30.9906	0.001651398					
45	31.01061	0.00165232					
45.1	31.03058	0.00165297					
45.2	31.05056	0.001654025					
45.3	31.07054	0.001654946					
45.4	31.09054	0.001655908					
45.5	31.11054	0.001656729					
45.6	31.13056	0.001657716					
45.7	31.15055	0.001658623					
45.8	31.17057	0.001659502					
45.9	31.19059	0.001660392					
46	31.21062	0.00166123					
46.1	31.23064	0.001662398					
46.2	31.25066	0.001663176					
46.3	31.27069	0.00166403					
46.4	31.29076	0.001664887					
46.5	31.31078	0.001665929					
46.6	31.33083	0.001666891					
46.7	31.35088	0.001667639					
46.8	31.3709	0.001668491					
46.9	31.39096	0.001669565					
47	31.411	0.001670422					
47.1	31.43101	0.001671158					
47.2	31.45104	0.001671961					
47.3	31.4711	0.00167311					
47.4	31.49115	0.001673952					
47.5	31.5112	0.001674848					
47.6	31.53123	0.001675697					
47.7	31.55126	0.001676621					
47.8	31.5713	0.001677602					
47.9	31.5913	0.001678377					
48	31.61131	0.001679108					
48.1	31.63129	0.001680156					
48.2	31.65129	0.001681034					
48.3	31.67128	0.001681859					
48.4	31.69126	0.001682629					
48.5	31.71121	0.001683665					
48.6	31.73118	0.001684491					
48.7	31.75114	0.001685447					
48.8	31.7711	0.0016861					
48.9	31.79105	0.001687133					
49	31.81098	0.001688201					
49.1	31.83094	0.00168885					
49.2	31.8509	0.001689687					
49.3	31.87084	0.001690607					
49.4	31.89077	0.001691465					
49.5	31.91071	0.001692382					
49.6	31.93063	0.001693165					
49.7	31.95058	0.001693918					
49.8	31.97051	0.001694948					
49.9	31.99044	0.001695826					
50	32.01038	0.001696569					
50.1	32.03033	0.001697524					
50.2	32.05027	0.001698439					
50.3	32.07022	0.001699277					
50.4	32.09014	0.001700061					
50.5	32.11007	0.00170084					
50.6	32.13003	0.001701813					
50.7	32.15	0.001702692					
50.8	32.16995	0.001703466					
50.9	32.1899	0.001704233					
51	32.20985	0.0017052					
51.1	32.22979	0.001706081					
51.2	32.24974	0.001706866					
51.3	32.26967	0.001707584					
51.4	32.28962	0.001708571					
51.5	32.30957	0.001709379					
51.6	32.32951	0.001710194					
51.7	32.34945	0.001711099					
51.8	32.3694	0.001711848					
51.9	32.38937	0.001712809					
52	32.40934	0.001713608					
52.1	32.42931	0.00171422					
52.2	32.44927	0.001715202					
52.3	32.46924	0.001716081					
52.4	32.48922	0.001716913					
52.5	32.50918	0.001717601					
52.6	32.52915	0.001718472					
52.7	32.54911	0.001719321					
52.8	32.56909	0.001720273					
52.9	32.58906	0.001720953					
53	32.60905	0.001721857					
53.1	32.62904	0.001722694					
53.2	32.64905	0.001723506					
53.3	32.66904	0.001724388					
53.4	32.68905	0.001725045					
53.5	32.70906	0.001726038					
53.6	32.72904	0.001726805					
53.7	32.74903	0.001727557					
53.8	32.76901	0.001728325					
53.9	32.78899	0.00172914					
54	32.80896	0.001730016					
54.1	32.82895	0.001730924					
54.2	32.84892	0.001731603					
54.3	32.86892	0.001732325					
54.4	32.88891	0.001733341					
54.5	32.90889	0.001734026					
54.6	32.92892	0.001734705					
54.7	32.94894	0.001735545					
54.8	32.96894	0.001736472					
54.9	32.98893	0.001737222					
55	33.00894	0.001737932					
55.1	33.02892	0.001738643					
55.2	33.04889	0.001739446					
55.3	33.06888	0.001740254					
55.4	33.08888	0.001741032					
55.5	33.10888	0.001741757					
55.6	33.12886	0.001742591					
55.7	33.14887	0.001743396					
55.8	33.16888	0.001744113					
55.9	33.18888	0.001744776					
56	33.20888	0.001745716					
56.1	33.22887	0.001746515					
56.2	33.24885	0.00174726					
56.3	33.26885	0.001747987					
56.4	33.28882	0.00174868					
56.5	33.30879	0.00174964					
56.6	33.32875	0.00175051					
56.7	33.34873	0.001750983					
56.8	33.3687	0.001751877					
56.9	33.38866	0.001752655					
57	33.40865	0.001753565					
57.1	33.42863	0.001754207					
57.2	33.44862	0.001754905					
57.3	33.46862	0.001755748					
57.4	33.48861	0.001756588					
57.5	33.50859	0.001757322					
57.6	33.52858	0.001758046					
57.7	33.54857	0.001758968					
57.8	33.56857	0.001759647					
57.9	33.58856	0.001760519					
58	33.60857	0.001761219					
58.1	33.62856	0.001761966					
58.2	33.64856	0.001762934					
58.3	33.66855	0.001763509					
58.4	33.68855	0.001764275					
58.5	33.70856	0.001764969					
58.6	33.72855	0.001765703					
58.7	33.74855	0.001766646					
58.8	33.76853	0.001767214					
58.9	33.78852	0.001767907					
59	33.80851	0.001768799					
59.1	33.82848	0.001769632					
59.2	33.84845	0.001770202					
59.3	33.86845	0.001770945					
59.4	33.88842	0.001771751					
59.5	33.90842	0.001772504					
59.6	33.9284	0.001773146					
59.7	33.94837	0.00177396					
59.8	33.96835	0.001774839					
59.9	33.98833	0.001775565					
60	34.0083	0.001776325					
60.1	34.02827	0.001776943					
60.2	34.04828	0.001777667					
60.3	34.06827	0.001778624					
60.4	34.08826	0.001779144					
60.5	34.10827	0.00177976					
60.6	34.12829	0.001780688					
60.7	34.14829	0.0017815					
60.8	34.1683	0.001782033					
60.9	34.1883	0.001782827					
61	34.20831	0.00178354					
61.1	34.22832	0.001784328					
61.2	34.24835	0.001785052					
61.3	34.26839	0.001785589					
61.4	34.28839	0.001786537					
61.5	34.30839	0.001787315					
61.6	34.3284	0.00178779					
61.7	34.34842	0.001788597					
61.8	34.36847	0.001789339					
61.9	34.38849	0.001790039					
62	34.4085	0.001790771					
62.1	34.42855	0.001791345					
62.2	34.44856	0.001792213					
62.3	34.46859	0.001793023					
62.4	34.48861	0.00179359					
62.5	34.50863	0.001794122					
62.6	34.52863	0.001794988					
62.7	34.54863	0.00179574					
62.8	34.56864	0.001796454					
62.9	34.58863	0.001796987					
63	34.60864	0.001797748					
63.1	34.62863	0.001798442					
63.2	34.64862	0.001799188					
63.3	34.66861	0.001799628					
63.4	34.68859	0.001800444					
63.5	34.70858	0.001801204					
63.6	34.72859	0.001801978					
63.7	34.74855	0.001802502					
63.8	34.76855	0.001803291					
63.9	34.78853	0.001804054					
64	34.80854	0.001804628					
64.1	34.82851	0.001805251					
64.2	34.84848	0.001805896					
64.3	34.86845	0.001806521					
64.4	34.88842	0.00180731					
64.5	34.90841	0.001807999					
64.6	34.92838	0.001808557					
64.7	34.94835	0.00180929					
64.8	34.96834	0.00181003					
64.9	34.9883	0.001810526					
65	35.00828	0.00181112					
65.1	35.02825	0.001811788					
65.2	35.04821	0.00181263					
65.3	35.06817	0.001813032					
65.4	35.08814	0.00181369					
65.5	35.10814	0.001814562					
65.6	35.12813	0.001815181					
65.7	35.14814	0.001815624					
65.8	35.16814	0.0018164					
65.9	35.1881	0.001816941					
66	35.2081	0.001817684					
66.1	35.22812	0.00181832					
66.2	35.24814	0.001818771					
66.3	35.26817	0.001819471					
66.4	35.28817	0.00182009					
66.5	35.3082	0.00182078					
66.6	35.3282	0.001821334					
66.7	35.34822	0.001821805					
66.8	35.36825	0.001822562					
66.9	35.38826	0.001823226					
67	35.40827	0.001823616					
67.1	35.4283	0.001824331					
67.2	35.44833	0.001824994					
67.3	35.46839	0.001825514					
67.4	35.48843	0.001826117					
67.5	35.50846	0.001826597					
67.6	35.52848	0.001827233					
67.7	35.54849	0.00182798					
67.8	35.56852	0.001828352					
67.9	35.58853	0.001828951					
68	35.60854	0.001829543					
68.1	35.62853	0.001830212					
68.2	35.64852	0.001830854					
68.3	35.6685	0.001831316					
68.4	35.68849	0.001831829					
68.5	35.70848	0.00183255					
68.6	35.72845	0.001833109					
68.7	35.74842	0.001833607					
68.8	35.76839	0.001834133					
68.9	35.78835	0.001834678					
69	35.80833	0.001835351					
69.1	35.82834	0.001835746					
69.2	35.84831	0.00183634					
69.3	35.86826	0.001836911					
69.4	35.88818	0.001837544					
69.5	35.90813	0.00183786					
69.6	35.92808	0.00183845					
69.7	35.94805	0.001838958					
69.8	35.968	0.001839681					
69.9	35.98794	0.00184019					
70	36.0079	0.001840506					
70.1	36.02789	0.001841173					
70.2	36.04786	0.001841769					
70.3	36.06782	0.001842179					
70.4	36.08776	0.00184263					
70.5	36.10771	0.00184332					
70.6	36.12769	0.001843817					
70.7	36.14768	0.001844378					
70.8	36.16767	0.001844688					
70.9	36.18766	0.001845176					
71	36.20762	0.001845884					
71.1	36.22761	0.001846304					
71.2	36.24758	0.001846724					
71.3	36.26758	0.001847143					
71.4	36.28759	0.001847761					
71.5	36.3076	0.001848342					
71.6	36.32763	0.001848693					
71.7	36.34764	0.001849187					
71.8	36.36765	0.001849646					
71.9	36.38767	0.001850271					
72	36.40771	0.001850681					
72.1	36.42772	0.001851105					
72.2	36.44772	0.001851619					
72.3	36.46771	0.001852128					
72.4	36.48775	0.001852542					
72.5	36.50778	0.001852843					
72.6	36.5278	0.001853325					
72.7	36.54781	0.001853815					
72.8	36.56781	0.001854352					
72.9	36.5878	0.00185457					
73	36.60782	0.001855094					
73.1	36.62781	0.001855647					
73.2	36.6478	0.001856065					
73.3	36.66777	0.001856427					
73.4	36.68776	0.001856889					
73.5	36.70774	0.001857325					
73.6	36.72774	0.001857801					
73.7	36.7477	0.001858151					
73.8	36.76768	0.001858449					
73.9	36.78767	0.001859064					
74	36.80766	0.001859406					
74.1	36.82761	0.001859728					
74.2	36.84761	0.001860213					
74.3	36.8676	0.001860572					
74.4	36.88757	0.001861116					
74.5	36.90753	0.001861455					
74.6	36.92748	0.001861705					
74.7	36.94746	0.00186225					
74.8	36.96743	0.00186272					
74.9	36.98738	0.001863009					
75	37.00735	0.00186337					
75.1	37.02732	0.001863726					
75.2	37.04732	0.00186412					
75.3	37.06731	0.001864502					
75.4	37.08729	0.001864802					
75.5	37.10728	0.00186516					
75.6	37.12726	0.001865579					
75.7	37.14724	0.001866053					
75.8	37.16724	0.001866199					
75.9	37.1872	0.001866536					
76	37.20714	0.001867					
76.1	37.2271	0.001867374					
76.2	37.24707	0.001867669					
76.3	37.26703	0.001868034					
76.4	37.28702	0.001868453					
76.5	37.30701	0.001868811					
76.6	37.32697	0.00186904					
76.7	37.34701	0.001869286					
76.8	37.36699	0.001869708					
76.9	37.38702	0.001870063					
77	37.40704	0.001870334					
77.1	37.42706	0.001870601					
77.2	37.44709	0.001870884					
77.3	37.46714	0.00187132					
77.4	37.48716	0.001871486					
77.5	37.5072	0.001871737					
77.6	37.5272	0.001872084					
77.7	37.54721	0.001872573					
77.8	37.5672	0.001872631					
77.9	37.5872	0.001872992					
78	37.60723	0.001873313					
78.1	37.62728	0.001873713					
78.2	37.64731	0.00187395					
78.3	37.66734	0.001873995					
78.4	37.68737	0.001874335					
78.5	37.7074	0.001874843					
78.6	37.72746	0.001874939					
78.7	37.7475	0.001875201					
78.8	37.7675	0.001875412					
78.9	37.78752	0.001875686					
79	37.80751	0.001876059					
79.1	37.82751	0.001876091					
79.2	37.84752	0.001876396					
79.3	37.86752	0.001876698					
79.4	37.88754	0.001877042					
79.5	37.90755	0.00187704					
79.6	37.92756	0.001877317					
79.7	37.9476	0.001877646					
79.8	37.96764	0.001877855					
79.9	37.98769	0.001877926					
80	38.00772	0.001878195					
80.1	38.02772	0.001878538					
80.2	38.0477	0.001878703					
80.3	38.06769	0.001878888					
80.4	38.08769	0.001879006					
80.5	38.10768	0.001879187					
80.6	38.12767	0.001879591					
80.7	38.14767	0.00187959					
80.8	38.16764	0.001879778					
80.9	38.18762	0.001880085					
81	38.2076	0.001880268					
81.1	38.22759	0.001880252					
81.2	38.24756	0.001880426					
81.3	38.26752	0.001880682					
81.4	38.28747	0.001881014					
81.5	38.30742	0.00188108					
81.6	38.32737	0.001881016					
81.7	38.34732	0.001881327					
81.8	38.36725	0.001881496					
81.9	38.38719	0.001881617					
82	38.40713	0.001881658					
82.1	38.42708	0.001881791					
82.2	38.44703	0.001882058					
82.3	38.46701	0.001882262					
82.4	38.48697	0.001882111					
82.5	38.5069	0.00188232					
82.6	38.52687	0.001882471					
82.7	38.5468	0.001882554					
82.8	38.56676	0.001882759					
82.9	38.58672	0.001882667					
83	38.60669	0.001882856					
83.1	38.62665	0.001883024					
83.2	38.64661	0.00188305					
83.3	38.66658	0.001883078					
83.4	38.68655	0.001883225					
83.5	38.70654	0.001883316					
83.6	38.72652	0.001883207					
83.7	38.74651	0.001883308					
83.8	38.76652	0.001883445					
83.9	38.78651	0.001883664					
84	38.80649	0.001883566			84	0.001883566	
84.1	38.82648	0.001883538			140	0.0013285	
84.2	38.84646	0.001883636			56	-0.000555066	-9.91189E-06
84.3	38.86645	0.001883652					
84.4	38.88642	0.001883781					
84.5	38.90641	0.001883711					
84.6	38.92642	0.001883554					
84.7	38.94642	0.001883761					
84.8	38.96643	0.001883736					
84.9	38.98643	0.001883635					
85	39.00644	0.001883599					
85.1	39.02647	0.001883629					
85.2	39.04652	0.00188376					
85.3	39.06658	0.001883685					
85.4	39.08664	0.001883582					
85.5	39.10671	0.001883618					
85.6	39.12676	0.0018835					
85.7	39.1468	0.001883611					
85.8	39.16685	0.001883441					
85.9	39.18691	0.001883423					
86	39.20698	0.001883459					
86.1	39.22705	0.001883412					
86.2	39.24711	0.001883047					
86.3	39.26718	0.001883115					
86.4	39.28725	0.001883134					
86.5	39.30731	0.001883039					
86.6	39.32735	0.001882801					
86.7	39.34738	0.001882798					
86.8	39.36742	0.001882758					
86.9	39.38746	0.001883024					
87	39.4075	0.001882497					
87.1	39.42756	0.001882359					
87.2	39.44756	0.001882482					
87.3	39.46756	0.001882285					
87.4	39.48755	0.001882256					
87.5	39.50754	0.001881918					
87.6	39.52752	0.001881899					
87.7	39.54751	0.001881861					
87.8	39.56751	0.001881636					
87.9	39.58751	0.001881371					
88	39.60749	0.001881256					
88.1	39.62747	0.001881308					
88.2	39.64744	0.00188102					
88.3	39.66743	0.00188099					
88.4	39.68741	0.001880593					
88.5	39.70739	0.001880632					
88.6	39.72737	0.001880375					
88.7	39.74738	0.001880082					
88.8	39.76736	0.001879924					
88.9	39.78732	0.001880015					
89	39.8073	0.001879622					
89.1	39.82728	0.001879401					
89.2	39.84726	0.001879216					
89.3	39.86723	0.001879095					
89.4	39.8872	0.001878852					
89.5	39.9072	0.001878545					
89.6	39.92718	0.001878369					
89.7	39.94717	0.001878179					
89.8	39.96716	0.001878045					
89.9	39.98712	0.00187769					
90	40.00707	0.001877372					
90.1	40.02705	0.001877268					
90.2	40.047	0.001877062					
90.3	40.06698	0.001876655					
90.4	40.08693	0.001876416					
90.5	40.10689	0.001876168					
90.6	40.12682	0.001875953					
90.7	40.14676	0.00187568					
90.8	40.16666	0.001875211					
90.9	40.18663	0.001874954					
91	40.20659	0.001874818					
91.1	40.22653	0.001874467					
91.2	40.24647	0.001873991					
91.3	40.26641	0.001873798					
91.4	40.28637	0.001873574					
91.5	40.30634	0.001873133					
91.6	40.3263	0.001872822					
91.7	40.34625	0.001872346					
91.8	40.36622	0.001872157					
91.9	40.3862	0.001871924					
92	40.40617	0.001871262					
92.1	40.42615	0.001870887					
92.2	40.44611	0.001870619					
92.3	40.46607	0.001870338					
92.4	40.48607	0.001869865					
92.5	40.50604	0.001869366					
92.6	40.52603	0.001869169					
92.7	40.54603	0.001868762					
92.8	40.56605	0.001868331					
92.9	40.58607	0.001867783					
93	40.60605	0.001867494					
93.1	40.62605	0.00186712					
93.2	40.64604	0.001866606					
93.3	40.66603	0.001866148					
93.4	40.68601	0.001865784					
93.5	40.70598	0.001865425					
93.6	40.7259	0.001864842					
93.7	40.74585	0.001864283					
93.8	40.76582	0.001863925					
93.9	40.78578	0.001863672					
94	40.80573	0.001862991					
94.1	40.82572	0.001862459					
94.2	40.8457	0.001862109					
94.3	40.86569	0.001861611					
94.4	40.88569	0.001861061					
94.5	40.90566	0.001860576					
94.6	40.92564	0.001860102					
94.7	40.94561	0.001859663					
94.8	40.96561	0.001859072					
94.9	40.98561	0.001858454					
95	41.00559	0.001857981					
95.1	41.02557	0.001857538					
95.2	41.04558	0.001856915					
95.3	41.06558	0.001856337					
95.4	41.08557	0.001855703					
95.5	41.1056	0.001855358					
95.6	41.12562	0.001854743					
95.7	41.14566	0.001854037					
95.8	41.16567	0.001853528					
95.9	41.18568	0.001853073					
96	41.20568	0.001852319					
96.1	41.22569	0.001851733					
96.2	41.24568	0.001851113					
96.3	41.26568	0.00185069					
96.4	41.28566	0.001850035					
96.5	41.30564	0.001849314					
96.6	41.32564	0.001848663					
96.7	41.34565	0.001848147					
96.8	41.36566	0.001847449					
96.9	41.38566	0.001846699					
97	41.40566	0.001845955					
97.1	41.42568	0.001845426					
97.2	41.44571	0.001844796					
97.3	41.46573	0.001844043					
97.4	41.48577	0.001843333					
97.5	41.50578	0.001842758					
97.6	41.5258	0.001842053					
97.7	41.54582	0.001841372					
97.8	41.56585	0.001840606					
97.9	41.58588	0.001839964					
98	41.6059	0.001839315					
98.1	41.62594	0.001838576					
98.2	41.64597	0.0018378					
98.3	41.66601	0.001836938					
98.4	41.68606	0.001836321					
98.5	41.7061	0.001835486					
98.6	41.72615	0.001834598					
98.7	41.74618	0.001833899					
98.8	41.7662	0.001833323					
98.9	41.78623	0.00183245					
99	41.80625	0.001831631					
99.1	41.82627	0.001830874					
99.2	41.84628	0.001830013					
99.3	41.86629	0.001829297					
99.4	41.88627	0.001828392					
99.5	41.90627	0.001827542					
99.6	41.92628	0.001826891					
99.7	41.94627	0.001826035					
99.8	41.96626	0.001825045					
99.9	41.98624	0.001824337					
100	42.00622	0.001823532					
100.1	42.02618	0.001822775					
100.2	42.04616	0.001821723					
100.3	42.06614	0.001820896					
100.4	42.08609	0.001819981					
100.5	42.10605	0.001819143					
100.6	42.12601	0.001818211					
100.7	42.14596	0.001817269					
100.8	42.16594	0.001816468					
100.9	42.18589	0.001815575					
101	42.20585	0.001814759					
101.1	42.2258	0.001813711					
101.2	42.24578	0.001812875					
101.3	42.26573	0.001811897					
101.4	42.28572	0.001811104					
101.5	42.30568	0.001810087					
101.6	42.32563	0.001809115					
101.7	42.34561	0.001808316					
101.8	42.3656	0.001807464					
101.9	42.38559	0.001806278					
102	42.40559	0.001805373					
102.1	42.42557	0.001804519					
102.2	42.44556	0.001803535					
102.3	42.46554	0.00180266					
102.4	42.48554	0.001801501					
102.5	42.50556	0.001800706					
102.6	42.52557	0.001799751					
102.7	42.54558	0.001798723					
102.8	42.56559	0.001797646					
102.9	42.58562	0.001796664					
103	42.60564	0.001795705					
103.1	42.62568	0.001794787					
103.2	42.6457	0.001793644					
103.3	42.66569	0.001792779					
103.4	42.68571	0.001791713					
103.5	42.7057	0.001790671					
103.6	42.72572	0.001789654					
103.7	42.74576	0.001788486					
103.8	42.76575	0.001787689					
103.9	42.78576	0.001786668					
104	42.80575	0.001785562					
104.1	42.82574	0.001784488					
104.2	42.84577	0.001783457					
104.3	42.86576	0.001782493					
104.4	42.88575	0.001781391					
104.5	42.90573	0.001780263					
104.6	42.9257	0.00177921					
104.7	42.94566	0.00177833					
104.8	42.96563	0.001777212					
104.9	42.9856	0.001776103					
105	43.00556	0.001774988					
105.1	43.02552	0.001773995					
105.2	43.04548	0.001772833					
105.3	43.06547	0.001771654					
105.4	43.08544	0.001770744					
105.5	43.10543	0.00176943					
105.6	43.12542	0.001768465					
105.7	43.1454	0.001767216					
105.8	43.16537	0.001766053					
105.9	43.18532	0.001765043					
106	43.20526	0.00176401					
106.1	43.22525	0.001762722					
106.2	43.24523	0.001761425					
106.3	43.26519	0.001760407					
106.4	43.28516	0.001759223					
106.5	43.30515	0.001758051					
106.6	43.32513	0.00175678					
106.7	43.3451	0.001755729					
106.8	43.36509	0.001754609					
106.9	43.38505	0.001753357					
107	43.405	0.001752024					
107.1	43.42498	0.001750872					
107.2	43.44497	0.00174972					
107.3	43.46495	0.001748643					
107.4	43.48492	0.001747257					
107.5	43.50491	0.001745912					
107.6	43.5249	0.001744895					
107.7	43.54487	0.001743585					
107.8	43.56486	0.001742313					
107.9	43.58487	0.001741095					
108	43.60489	0.001739822					
108.1	43.62493	0.001738674					
108.2	43.64494	0.001737165					
108.3	43.66497	0.001735882					
108.4	43.685	0.001734686					
108.5	43.70502	0.00173352					
108.6	43.72505	0.001732124					
108.7	43.74508	0.001730857					
108.8	43.76511	0.00172951					
108.9	43.78515	0.001728252					
109	43.80519	0.001726883					
109.1	43.82524	0.001725465					
109.2	43.84525	0.001724234					
109.3	43.86525	0.001723003					
109.4	43.88527	0.00172158					
109.5	43.90529	0.001720034					
109.6	43.92529	0.001718955					
109.7	43.94529	0.001717662					
109.8	43.96531	0.001716284					
109.9	43.98533	0.001714703					
110	44.00533	0.00171349					
110.1	44.0253	0.001712237					
110.2	44.04526	0.001710738					
110.3	44.06523	0.001709344					
110.4	44.08519	0.001707943					
110.5	44.10515	0.001706666					
110.6	44.12512	0.001705295					
110.7	44.14507	0.001703775					
110.8	44.16501	0.001702517					
110.9	44.18498	0.001701097					
111	44.20495	0.001699301					
111.1	44.22491	0.001697516					
111.2	44.24489	0.001695795					
111.3	44.26484	0.001694671					
111.4	44.28482	0.001693228					
111.5	44.30477	0.001691723					
111.6	44.32473	0.001690261					
111.7	44.34467	0.001688952					
111.8	44.36462	0.00168743					
111.9	44.38457	0.001686024					
112	44.40449	0.001684337					
112.1	44.42446	0.001683094					
112.2	44.44442	0.001681619					
112.3	44.46441	0.00168004					
112.4	44.48437	0.001678636					
112.5	44.50434	0.001677075					
112.6	44.52435	0.001675792					
112.7	44.54434	0.001674139					
112.8	44.56433	0.001672562					
112.9	44.58432	0.001671308					
113	44.60432	0.001669714					
113.1	44.62432	0.00166813					
113.2	44.64433	0.001666591					
113.3	44.66433	0.001665114					
113.4	44.68435	0.00166371					
113.5	44.70438	0.001662126					
113.6	44.72441	0.001660415					
113.7	44.74442	0.001658945					
113.8	44.76449	0.001657517					
113.9	44.78454	0.001655927					
114	44.80458	0.001654323					
114.1	44.82464	0.001652837					
114.2	44.84468	0.001651196					
114.3	44.86472	0.001649652					
114.4	44.88472	0.001648061					
114.5	44.90478	0.0016465					
114.6	44.92484	0.00164505					
114.7	44.94487	0.001643323					
114.8	44.96493	0.001641943					
114.9	44.98498	0.001640238					
115	45.00504	0.001638763					
115.1	45.02509	0.001637161					
115.2	45.04516	0.001635539					
115.3	45.06521	0.001633881					
115.4	45.08526	0.00163238					
115.5	45.10532	0.001630789					
115.6	45.12538	0.001629217					
115.7	45.14544	0.00162752					
115.8	45.16552	0.001625966					
115.9	45.18556	0.001624439					
116	45.20561	0.001622717					
116.1	45.22566	0.001621225					
116.2	45.24571	0.0016195					
116.3	45.26575	0.001618073					
116.4	45.28582	0.001616438					
116.5	45.30587	0.00161475					
116.6	45.32589	0.001613132					
116.7	45.34592	0.001611601					
116.8	45.36593	0.00160997					
116.9	45.38593	0.001608281					
117	45.40593	0.001606637					
117.1	45.42591	0.001605133					
117.2	45.44588	0.001603553					
117.3	45.46584	0.001601773					
117.4	45.48581	0.00160015					
117.5	45.50577	0.001598573					
117.6	45.52572	0.001597006					
117.7	45.54566	0.001595379					
117.8	45.5656	0.001593645					
117.9	45.58553	0.001592117					
118	45.60548	0.001590539					
118.1	45.62542	0.001588823					
118.2	45.64533	0.001587107					
118.3	45.66526	0.001585626					
118.4	45.68518	0.001583839					
118.5	45.70512	0.001582198					
118.6	45.72507	0.001580497					
118.7	45.745	0.001578811					
118.8	45.76495	0.001577312					
118.9	45.7849	0.001575526					
119	45.80484	0.001573869					
119.1	45.82479	0.001572139					
119.2	45.84476	0.001570617					
119.3	45.86473	0.001568955					
119.4	45.8847	0.001567166					
119.5	45.90466	0.001565397					
119.6	45.92463	0.001563889					
119.7	45.94461	0.001562254					
119.8	45.96457	0.001560587					
119.9	45.98455	0.001558766					
120	46.00451	0.001557169					
120.1	46.02449	0.001555541					
120.2	46.04448	0.00155386					
120.3	46.06448	0.001552151					
120.4	46.08447	0.001550438					
120.5	46.10444	0.001548913					
120.6	46.1244	0.001547162					
120.7	46.14439	0.001545379					
120.8	46.16436	0.001543697					
120.9	46.18433	0.001542181					
121	46.20431	0.001540546					
121.1	46.2243	0.001538756					
121.2	46.24427	0.001537155					
121.3	46.26424	0.001535371					
121.4	46.2842	0.001533817					
121.5	46.30417	0.001532075					
121.6	46.32417	0.001530406					
121.7	46.34416	0.00152878					
121.8	46.36415	0.0015272					
121.9	46.38415	0.001525417					
122	46.40416	0.001523833					
122.1	46.42415	0.001522157					
122.2	46.44414	0.001520526					
122.3	46.46414	0.001518857					
122.4	46.48411	0.001517027					
122.5	46.50412	0.001515531					
122.6	46.52412	0.001513923					
122.7	46.54414	0.001512288					
122.8	46.56413	0.001510468					
122.9	46.58413	0.001508791					
123	46.60413	0.001507144					
123.1	46.62414	0.001505674					
123.2	46.64414	0.001503672					
123.3	46.66414	0.00150199					
123.4	46.68416	0.001500406					
123.5	46.70417	0.001498786					
123.6	46.72419	0.001497041					
123.7	46.74421	0.001495272					
123.8	46.76422	0.001493742					
123.9	46.78421	0.001492177					
124	46.8042	0.001490514					
124.1	46.82421	0.001488898					
124.2	46.84422	0.00148754					
124.3	46.86422	0.001485859					
124.4	46.88422	0.001484211					
124.5	46.90424	0.001482656					
124.6	46.92426	0.001481045					
124.7	46.94426	0.001479571					
124.8	46.96429	0.001477975					
124.9	46.9843	0.001476419					
125	47.0043	0.001474875					
125.1	47.0243	0.001473343					
125.2	47.04431	0.001471807					
125.3	47.06432	0.001470197					
125.4	47.08433	0.001468779					
125.5	47.10431	0.001467329					
125.6	47.12432	0.001465739					
125.7	47.14433	0.001464277					
125.8	47.16433	0.001462849					
125.9	47.18434	0.001461336					
126	47.20434	0.001459949					
126.1	47.22434	0.001458373					
126.2	47.24433	0.001456872					
126.3	47.26432	0.001455605					
126.4	47.28434	0.001453986					
126.5	47.30433	0.001452509					
126.6	47.3243	0.001451152					
126.7	47.34431	0.001449715					
126.8	47.36429	0.001448426					
126.9	47.38425	0.001446827					
127	47.40424	0.001445284					
127.1	47.42423	0.001443994					
127.2	47.44422	0.00144264					
127.3	47.46421	0.001441048					
127.4	47.48418	0.001439711					
127.5	47.50416	0.001438334					
127.6	47.52415	0.001436886					
127.7	47.54411	0.001435513					
127.8	47.56407	0.001434029					
127.9	47.58404	0.001432777					
128	47.60403	0.001431364					
128.1	47.62401	0.001429942					
128.2	47.64399	0.001428511					
128.3	47.66395	0.001427215					
128.4	47.68391	0.001425815					
128.5	47.70386	0.001424437					
128.6	47.72382	0.001422992					
128.7	47.74378	0.001421704					
128.8	47.76374	0.001420469					
128.9	47.78371	0.001419066					
129	47.80367	0.001417765					
129.1	47.82366	0.001416467					
129.2	47.84364	0.001415276					
129.3	47.8636	0.001413972					
129.4	47.88358	0.001412558					
129.5	47.90357	0.001411374					
129.6	47.92356	0.001410129					
129.7	47.94354	0.001408819					
129.8	47.96354	0.001407613					
129.9	47.98353	0.001406156					
130	48.00351	0.001404994					
130.1	48.02349	0.001403846					
130.2	48.0435	0.001402467					
130.3	48.0635	0.001401277					
130.4	48.08349	0.001400004					
130.5	48.10349	0.001398929					
130.6	48.12353	0.001397527					
130.7	48.14353	0.00139637					
130.8	48.16355	0.001395365					
130.9	48.18355	0.001394037					
131	48.20357	0.001392814					
131.1	48.22358	0.001391497					
131.2	48.24357	0.001390453					
131.3	48.26358	0.001389327					
131.4	48.28357	0.00138821					
131.5	48.30356	0.001386941					
131.6	48.32355	0.001385814					
131.7	48.34354	0.001384855					
131.8	48.36355	0.001383568					
131.9	48.3835	0.00138248					
132	48.4035	0.001381314					
132.1	48.42349	0.001380308					
132.2	48.44348	0.001379294					
132.3	48.46345	0.001378059					
132.4	48.48343	0.00137707					
132.5	48.5034	0.001376198					
132.6	48.52339	0.001375049					
132.7	48.54334	0.001373831					
132.8	48.56331	0.001372929					
132.9	48.58328	0.001371932					
133	48.60325	0.001370967					
133.1	48.6232	0.001369904					
133.2	48.64318	0.001368772					
133.3	48.66316	0.001367958					
133.4	48.68311	0.001367003					
133.5	48.70309	0.001365909					
133.6	48.72306	0.001365062					
133.7	48.74305	0.001364055					
133.8	48.76304	0.001363332					
133.9	48.78302	0.001362275					
134	48.80303	0.001361299					
134.1	48.82301	0.001360509					
134.2	48.84298	0.001359539					
134.3	48.86296	0.001358768					
134.4	48.88296	0.001357811					
134.5	48.90295	0.001357029					
134.6	48.92296	0.001356206					
134.7	48.94296	0.001355264					
134.8	48.96296	0.001354408					
134.9	48.98296	0.001353608					
135	49.00296	0.001352872					
135.1	49.02297	0.001352131					
135.2	49.04298	0.001351295					
135.3	49.06298	0.001350447					
135.4	49.083	0.001349763					
135.5	49.10304	0.001349005					
135.6	49.12305	0.001348209					
135.7	49.14307	0.001347435					
135.8	49.16306	0.001346839					
135.9	49.18307	0.001346167					
136	49.20308	0.001345511					
136.1	49.22311	0.001344771					
136.2	49.24314	0.001343896					
136.3	49.26317	0.001343514					
136.4	49.28318	0.00134273					
136.5	49.30323	0.001342202					
136.6	49.32326	0.001341344					
136.7	49.34327	0.001340999					
136.8	49.36331	0.001340451					
136.9	49.38335	0.001339734					
137	49.40338	0.001339157					
137.1	49.4234	0.001338532					
137.2	49.44344	0.001338064					
137.3	49.46348	0.001337535					
137.4	49.48349	0.00133697					
137.5	49.50351	0.001336579					
137.6	49.52352	0.001336156					
137.7	49.54355	0.001335573					
137.8	49.56358	0.001335018					
137.9	49.5836	0.001334699					
138	49.60361	0.001334254					
138.1	49.62362	0.001333761					
138.2	49.64363	0.001333426					
138.3	49.66364	0.001332965					
138.4	49.68364	0.001332742					
138.5	49.70363	0.001332335					
138.6	49.72362	0.001331844					
138.7	49.74363	0.001331562					
138.8	49.76363	0.001331207					
138.9	49.78362	0.001331089					
139	49.80362	0.001330578					
139.1	49.82363	0.001330283					
139.2	49.84362	0.001330208					
139.3	49.86363	0.001329943					
139.4	49.88364	0.00132966					
139.5	49.90365	0.001329304					
139.6	49.92366	0.001329182					
139.7	49.94366	0.00132918					
139.8	49.96367	0.001328752					
139.9	49.98367	0.001328672					
140	50.00369	0.0013285					
140.1	50.02373	0.001328503					
140.2	50.04372	0.001328235					
140.3	50.06372	0.001328078					
140.4	50.08374	0.001328044					
140.5	50.10376	0.001328015					
140.6	50.12377	0.001327981					
140.7	50.14376	0.001327796					
140.8	50.16375	0.001327844					
140.9	50.18373	0.001327976					
141	50.20371	0.001327732					
141.1	50.22369	0.001327825					
141.2	50.24367	0.001327892					
141.3	50.26365	0.001328071					
141.4	50.28363	0.00132798					
141.5	50.3036	0.001328011					
141.6	50.32358	0.00132817					
141.7	50.34354	0.001328324					
141.8	50.3635	0.001328467					
141.9	50.38346	0.00132853					
142	50.40344	0.001328628					
142.1	50.42338	0.001329108					
142.2	50.44331	0.001329057					
142.3	50.46329	0.00132923					
142.4	50.48326	0.001329492					
142.5	50.50322	0.001329734					
142.6	50.52319	0.001330055					
142.7	50.54314	0.001330181					
142.8	50.56309	0.001330533					
142.9	50.58307	0.001330948					
143	50.60307	0.001331293					
143.1	50.62305	0.00133148					
143.2	50.64304	0.00133181					
143.3	50.66304	0.001332123					
143.4	50.68301	0.001332672					
143.5	50.70301	0.00133299					
143.6	50.72301	0.001333338					
143.7	50.74302	0.001333755					
143.8	50.76305	0.001334317					
143.9	50.78307	0.001334629					
144	50.80308	0.001335054					
144.1	50.82311	0.00133558					
144.2	50.84317	0.001336122					
144.3	50.86321	0.001336659					
144.4	50.88325	0.001337024					
144.5	50.90327	0.001337691					
144.6	50.92332	0.001338273					
144.7	50.94338	0.001338777					
144.8	50.96345	0.001339383					
144.9	50.98353	0.00133992					
145	51.00361	0.001340726					
145.1	51.02366	0.001341392					
145.2	51.04372	0.001341824					
145.3	51.06378	0.001342721					
145.4	51.08385	0.001343285					
145.5	51.10392	0.001344066					
145.6	51.12396	0.001344603					
145.7	51.144	0.001345418					
145.8	51.16404	0.001346263					
145.9	51.18408	0.001347027					
146	51.20411	0.001347589					
146.1	51.22414	0.001348472					
146.2	51.24418	0.00134931					
146.3	51.26422	0.001350144					
146.4	51.28427	0.001350827					
146.5	51.30429	0.001351682					
146.6	51.32431	0.001352571					
146.7	51.34433	0.001353459					
146.8	51.36435	0.001354271					
146.9	51.38437	0.001355098					
147	51.40437	0.00135608					
147.1	51.42436	0.001357019					
147.2	51.44437	0.001357975					
147.3	51.46438	0.001358635					
147.4	51.48438	0.001359913					
147.5	51.5044	0.00136085					
147.6	51.52439	0.001361723					
147.7	51.54439	0.001362658					
147.8	51.56438	0.001363567					
147.9	51.58438	0.001364694					
148	51.60438	0.001365727					
148.1	51.62437	0.001366655					
148.2	51.64434	0.001367692					
148.3	51.66428	0.001368834					
148.4	51.68421	0.001369892					
148.5	51.70417	0.001370758					
148.6	51.72414	0.001371976					
148.7	51.74411	0.001372969					
148.8	51.76406	0.00137415					
148.9	51.784	0.001375183					
149	51.80395	0.00137632					
149.1	51.82391	0.001377503					
149.2	51.84384	0.001378712					
149.3	51.86379	0.001379696					
149.4	51.88374	0.001380919					
149.5	51.90367	0.001382034					
149.6	51.92362	0.001383419					
149.7	51.94356	0.001384538					
149.8	51.96351	0.001385673					
149.9	51.98345	0.001386911					
150	52.00338	0.001388143					
150.1	52.02331	0.001389446					
150.2	52.04326	0.001390462					
150.3	52.06321	0.001391851					
150.4	52.08318	0.001393261					
150.5	52.10316	0.0013944					
150.6	52.12313	0.001395577					
150.7	52.14308	0.001396979					
150.8	52.16303	0.001398266					
150.9	52.18301	0.001399713					
151	52.203	0.001400943					
151.1	52.22297	0.001402212					
151.2	52.24294	0.001403717					
151.3	52.26294	0.001405025					
151.4	52.28293	0.001406463					
151.5	52.30293	0.001407722					
151.6	52.32296	0.001409077					
151.7	52.34298	0.001410658					
151.8	52.36304	0.001412027					
151.9	52.3831	0.001413191					
152	52.40317	0.001414827					
152.1	52.42323	0.001416285					
152.2	52.44332	0.001417722					
152.3	52.46337	0.001418989					
152.4	52.48344	0.001420457					
152.5	52.50351	0.001422072					
152.6	52.52356	0.001423505					
152.7	52.54363	0.001424817					
152.8	52.56371	0.001426568					
152.9	52.58378	0.001428					
153	52.60387	0.001429565					
153.1	52.62396	0.001430917					
153.2	52.64406	0.001432413					
153.3	52.66414	0.001434094					
153.4	52.68422	0.001435623					
153.5	52.7043	0.001437048					
153.6	52.72436	0.001438599					
153.7	52.74443	0.001440145					
153.8	52.76448	0.001441762					
153.9	52.78451	0.001443295					
154	52.80454	0.001444782					
154.1	52.82456	0.001446533					
154.2	52.8446	0.00144806					
154.3	52.86463	0.001449661					
154.4	52.88468	0.001451181					
154.5	52.90473	0.001452836					
154.6	52.92474	0.001454576					
154.7	52.94476	0.001456253					
154.8	52.96477	0.00145762					
154.9	52.98478	0.001459321					
155	53.00476	0.001461127					
155.1	53.02475	0.00146277					
155.2	53.04472	0.001464301					
155.3	53.06472	0.001465972					
155.4	53.0847	0.001467706					
155.5	53.10469	0.001469387					
155.6	53.12467	0.00147077					
155.7	53.14463	0.001472662					
155.8	53.16458	0.00147432					
155.9	53.18454	0.00147601					
156	53.20448	0.001477589					
156.1	53.22443	0.001479173					
156.2	53.24437	0.001481162					
156.3	53.26431	0.001482933					
156.4	53.28427	0.001484596					
156.5	53.30421	0.001486125					
156.6	53.32417	0.001488258					
156.7	53.34415	0.001489852					
156.8	53.36409	0.00149162					
156.9	53.38406	0.001493462					
157	53.40402	0.001495327					
157.1	53.42398	0.001497169					
157.2	53.44393	0.001498785					
157.3	53.46388	0.001500746					
157.4	53.4838	0.001502654					
157.5	53.50377	0.001504593					
157.6	53.52371	0.001506305					
157.7	53.54365	0.001508075					
157.8	53.56358	0.001510086					
157.9	53.58353	0.001512093					
158	53.6035	0.001513873					
158.1	53.62348	0.001515703					
158.2	53.64345	0.001517674					
158.3	53.66341	0.001519575					
158.4	53.68335	0.001521667					
158.5	53.7033	0.001523362					
158.6	53.72325	0.001525303					
158.7	53.74317	0.001527367					
158.8	53.7631	0.001529166					
158.9	53.78304	0.001531134					
159	53.803	0.001533132					
159.1	53.82296	0.001535019					
159.2	53.84293	0.001537141					
159.3	53.86288	0.00153898					
159.4	53.88286	0.00154086					
159.5	53.90284	0.001543003					
159.6	53.92282	0.001544903					
159.7	53.9428	0.001546819					
159.8	53.96279	0.001548841					
159.9	53.98277	0.001550827					
160	54.00274	0.001552939					
160.1	54.02272	0.001554807					
160.2	54.04268	0.001556725					
160.3	54.06268	0.001558839					
160.4	54.08268	0.001560966					
160.5	54.10268	0.001562749					
160.6	54.12267	0.001564743					
160.7	54.14268	0.001566848					
160.8	54.16272	0.001569047					
160.9	54.18275	0.001570857					
161	54.20275	0.001572785					
161.1	54.22276	0.001574936					
161.2	54.24277	0.001577022					
161.3	54.2628	0.001579084					
161.4	54.2828	0.001581141					
161.5	54.30281	0.001583152					
161.6	54.32284	0.001585303					
161.7	54.34285	0.001587369					
161.8	54.36286	0.001589378					
161.9	54.38289	0.001591365					
162	54.4029	0.001593627					
162.1	54.4229	0.001595611					
162.2	54.44293	0.001597646					
162.3	54.46296	0.001599732					
162.4	54.48297	0.001601958					
162.5	54.50297	0.001603894					
162.6	54.52298	0.001605999					
162.7	54.543	0.001608089					
162.8	54.56301	0.001610259					
162.9	54.583	0.001612362					
163	54.60303	0.001614405					
163.1	54.62305	0.001616502					
163.2	54.64308	0.001618669					
163.3	54.66308	0.001620792					
163.4	54.6831	0.001622726					
163.5	54.70314	0.001624888					
163.6	54.72316	0.001627078					
163.7	54.74316	0.001629217					
163.8	54.76316	0.001631296					
163.9	54.78317	0.001633195					
164	54.8032	0.001635396					
164.1	54.82323	0.001637581					
164.2	54.84325	0.001639705					
164.3	54.86325	0.001641758					
164.4	54.88326	0.001643846					
164.5	54.90326	0.001646107					
164.6	54.92326	0.001648185					
164.7	54.94326	0.001650181					
164.8	54.96325	0.001652374					
164.9	54.98324	0.001654566					
165	55.00323	0.001656653					
165.1	55.02322	0.00165877					
165.2	55.0432	0.001660854					
165.3	55.06317	0.001663047					
165.4	55.08316	0.001665238					
165.5	55.10312	0.001667266					
165.6	55.1231	0.001669484					
165.7	55.14308	0.001671676					
165.8	55.16305	0.001673828					
165.9	55.18302	0.00167598					
166	55.203	0.001678027					
166.1	55.22297	0.001680359					
166.2	55.24292	0.001682608					
166.3	55.2629	0.001684592					
166.4	55.28289	0.001686801					
166.5	55.30288	0.001688946					
166.6	55.32287	0.001691122					
166.7	55.34283	0.001693341					
166.8	55.36284	0.001695291					
166.9	55.38283	0.001697565					
167	55.40283	0.001699904					
167.1	55.4228	0.001701991					
167.2	55.44279	0.00170415					
167.3	55.46279	0.001706348					
167.4	55.48279	0.001708587					
167.5	55.50279	0.001710901					
167.6	55.52279	0.001712892					
167.7	55.54277	0.001715131					
167.8	55.56276	0.001717451					
167.9	55.58279	0.0017197					
168	55.60284	0.001721792					
168.1	55.62284	0.001723946					
168.2	55.64289	0.001726193					
168.3	55.66296	0.001728546					
168.4	55.68299	0.00173069					
168.5	55.70301	0.001732781					
168.6	55.72302	0.001735017					
168.7	55.74307	0.0017372					
168.8	55.76311	0.001739489					
168.9	55.78314	0.001741463					
169	55.80317	0.001743756					
169.1	55.82321	0.001745997					
169.2	55.84325	0.001748154					
169.3	55.86329	0.001750346					
169.4	55.88332	0.00175256					
169.5	55.90335	0.001754842					
169.6	55.92336	0.001757175					
169.7	55.94339	0.001759204					
169.8	55.96343	0.001761497					
169.9	55.98347	0.001763826					
170	56.00347	0.001766051					
170.1	56.02347	0.00176813					
170.2	56.04349	0.001770426					
170.3	56.06346	0.001772589					
170.4	56.08344	0.001774981					
170.5	56.10344	0.001777051					
170.6	56.12343	0.00177925					
170.7	56.14342	0.001781577					
170.8	56.16339	0.001783906					
170.9	56.18338	0.001786094					
171	56.20338	0.001788248					
171.1	56.22337	0.001790527					
171.2	56.24334	0.001792923					
171.3	56.2633	0.001795224					
171.4	56.28327	0.001797168					
171.5	56.30323	0.001799638					
171.6	56.32321	0.00180185					
171.7	56.34321	0.001804259					
171.8	56.36318	0.001806329					
171.9	56.38317	0.001808559					
172	56.40315	0.001810957					
172.1	56.42312	0.001813085					
172.2	56.44311	0.00181532					
172.3	56.4631	0.001817653					
172.4	56.4831	0.00182					
172.5	56.50309	0.001822186					
172.6	56.52308	0.001824358					
172.7	56.54309	0.001826458					
172.8	56.56309	0.001828995					
172.9	56.58312	0.001831157					
173	56.60311	0.001833374					
173.1	56.62312	0.001835589					
173.2	56.64313	0.001838065					
173.3	56.66316	0.001840389					
173.4	56.68317	0.001842635					
173.5	56.70319	0.001844959					
173.6	56.72321	0.001847467					
173.7	56.74321	0.001849909					
173.8	56.76321	0.001852033					
173.9	56.78322	0.001854543					
174	56.80321	0.001856831					
174.1	56.82322	0.001859422					
174.2	56.84324	0.001861675					
174.3	56.86322	0.001863889					
174.4	56.88323	0.001866462					
174.5	56.9032	0.001869082					
174.6	56.92319	0.001871386					
174.7	56.94317	0.001873826					
174.8	56.96316	0.001876145					
174.9	56.98316	0.001878709					
175	57.00315	0.001881128					
175.1	57.02315	0.001883455					
175.2	57.04314	0.00188584					
175.3	57.06316	0.001888418					
175.4	57.08315	0.00189092					
175.5	57.10315	0.001893179					
175.6	57.12317	0.001895638					
175.7	57.1432	0.001898245					
175.8	57.16322	0.001900675					
175.9	57.18324	0.001903041					
176	57.20326	0.001905559					
176.1	57.22328	0.001908075					
176.2	57.24329	0.001910487					
176.3	57.26331	0.001912924					
176.4	57.28332	0.001915228					
176.5	57.30335	0.001917696					
176.6	57.32339	0.001920332					
176.7	57.34344	0.001922685					
176.8	57.36347	0.001925121					
176.9	57.3835	0.001927696					
177	57.4035	0.001930153					
177.1	57.42351	0.001932518					
177.2	57.44354	0.001934902					
177.3	57.46354	0.001937571					
177.4	57.48358	0.001940037					
177.5	57.50361	0.001942406					
177.6	57.52362	0.00194488					
177.7	57.54363	0.001947391					
177.8	57.56363	0.001949917					
177.9	57.58364	0.001952337					
178	57.60366	0.001954676					
178.1	57.62367	0.001957306					
178.2	57.64371	0.001959752					
178.3	57.66374	0.001962224					
178.4	57.68377	0.001964712					
178.5	57.70381	0.001967073					
178.6	57.72385	0.001969675					
178.7	57.74387	0.001972128					
178.8	57.76391	0.001974461					
178.9	57.78394	0.001976983					
179	57.80398	0.001979555					
179.1	57.82402	0.001981859					
179.2	57.84404	0.001984335					
179.3	57.86407	0.001986873					
179.4	57.8841	0.001989192					
179.5	57.9041	0.00199179					
179.6	57.92411	0.001993988					
179.7	57.94412	0.001996583					
179.8	57.96413	0.001999065					
179.9	57.98413	0.00200139					
180	58.00415	0.002003825					
180.1	58.02415	0.002006347					
180.2	58.04417	0.002008787					
180.3	58.06413	0.00201126					
180.4	58.08411	0.002013531					
180.5	58.10408	0.002015942					
180.6	58.12404	0.002018585					
180.7	58.144	0.002021027					
180.8	58.16395	0.002023342					
180.9	58.18389	0.002025834					
181	58.20385	0.002028248					
181.1	58.22379	0.00203087					
181.2	58.24376	0.002033099					
181.3	58.26373	0.00203548					
181.4	58.28368	0.002038					
181.5	58.30363	0.002040551					
181.6	58.32358	0.002043032					
181.7	58.34354	0.00204529					
181.8	58.36352	0.002047693					
181.9	58.38347	0.002050246					
182	58.40343	0.00205262					
182.1	58.42338	0.002054999					
182.2	58.44333	0.002057421					
182.3	58.46326	0.002059942					
182.4	58.48325	0.002062414					
182.5	58.5032	0.002064712					
182.6	58.52316	0.002067193					
182.7	58.54312	0.002069746					
182.8	58.5631	0.002072156					
182.9	58.58308	0.002074565					
183	58.60304	0.002077065					
183.1	58.62302	0.002079467					
183.2	58.64297	0.002081945					
183.3	58.66292	0.00208425					
183.4	58.68289	0.00208665					
183.5	58.70288	0.002089122					
183.6	58.72286	0.002091479					
183.7	58.74284	0.002093901					
183.8	58.76284	0.002096318					
183.9	58.78282	0.002098734					
184	58.80285	0.002101166					
184.1	58.82286	0.002103647					
184.2	58.84288	0.002105904					
184.3	58.8629	0.002108425					
184.4	58.88291	0.002110878					
184.5	58.90292	0.002113248					
184.6	58.92296	0.002115677					
184.7	58.94299	0.002118039					
184.8	58.96301	0.002120598					
184.9	58.98302	0.002123059					
185	59.00305	0.00212539					
185.1	59.0231	0.002127864					
185.2	59.04311	0.002130297					
185.3	59.06315	0.002132727					
185.4	59.08317	0.002135081					
185.5	59.1032	0.002137439					
185.6	59.1232	0.002140074					
185.7	59.14321	0.002142477					
185.8	59.16324	0.002144805					
185.9	59.18323	0.00214716					
186	59.20325	0.002149708					
186.1	59.22325	0.00215216					
186.2	59.24325	0.002154598					
186.3	59.26324	0.00215696					
186.4	59.28325	0.002159465					
186.5	59.30328	0.002161942					
186.6	59.32328	0.002164205					
186.7	59.34327	0.00216653					
186.8	59.36326	0.002169033					
186.9	59.38327	0.002171533					
187	59.40328	0.002174097					
187.1	59.42328	0.002176362					
187.2	59.44329	0.002178714					
187.3	59.46329	0.002181192					
187.4	59.4833	0.002183507					
187.5	59.50329	0.002185886					
187.6	59.5233	0.002188257					
187.7	59.54332	0.002190825					
187.8	59.56333	0.002193415					
187.9	59.58335	0.002195718					
188	59.60337	0.00219822					
188.1	59.62337	0.002200877					
188.2	59.64337	0.002203297					
188.3	59.66334	0.002205703					
188.4	59.68336	0.002208289					
188.5	59.70335	0.002210815					
188.6	59.72334	0.002213511					
188.7	59.74337	0.002215911					
188.8	59.76338	0.002218377					
188.9	59.78339	0.002221006					
189	59.80339	0.002223452					
189.1	59.82342	0.002226176					
189.2	59.84343	0.00222862					
189.3	59.86345	0.002231343					
189.4	59.88349	0.002233879					
189.5	59.90352	0.002236421					
189.6	59.92354	0.002238858					
189.7	59.94356	0.002241697					
189.8	59.96355	0.002244077					
189.9	59.98355	0.002246763					
190	60.00356	0.002249141					
190.1	60.02358	0.002251796					
190.2	60.04356	0.002254531					
190.3	60.06357	0.002256855					
190.4	60.08358	0.002259487					
190.5	60.10358	0.002262071					
190.6	60.12358	0.002264761					
190.7	60.14358	0.002267265					
190.8	60.16358	0.002269706					
190.9	60.18358	0.002272275					
191	60.20358	0.002275209					
191.1	60.22358	0.002277419					
191.2	60.24356	0.002279997					
191.3	60.26353	0.002282635					
191.4	60.28352	0.002285207					
191.5	60.3035	0.002287881					
191.6	60.32349	0.002290196					
191.7	60.34346	0.002292865					
191.8	60.36346	0.002295638					
191.9	60.38347	0.002298249					
192	60.40343	0.002300619					
192.1	60.42342	0.002303165					
192.2	60.44341	0.002305861					
192.3	60.46341	0.00230847					
192.4	60.48342	0.002310793					
192.5	60.50342	0.00231347					
192.6	60.52343	0.002316164					
192.7	60.54344	0.002318715					
192.8	60.56344	0.00232121					
192.9	60.58341	0.00232365					
193	60.60341	0.002326418					
193.1	60.62343	0.002328994					
193.2	60.64342	0.002331523					
193.3	60.66342	0.002334079					
193.4	60.68343	0.002336662					
193.5	60.70343	0.002339111					
193.6	60.72346	0.002341732					
193.7	60.74347	0.002344121					
193.8	60.76349	0.002346874					
193.9	60.7835	0.002349484					
194	60.80352	0.002351905					
194.1	60.82355	0.002354106					
194.2	60.84357	0.002356674					
194.3	60.86358	0.002359274					
194.4	60.88357	0.002361921					
194.5	60.90359	0.002364139					
194.6	60.9236	0.002366836					
194.7	60.94361	0.002369468					
194.8	60.96362	0.002371982					
194.9	60.98367	0.002374504					
195	61.00369	0.002377035					
195.1	61.02371	0.002379656					
195.2	61.04377	0.002382104					
195.3	61.06382	0.002384638					
195.4	61.08385	0.002387112					
195.5	61.10389	0.002389886					
195.6	61.12391	0.002392333					
195.7	61.14395	0.002394862					
195.8	61.16397	0.002397298					
195.9	61.18403	0.002399854					
196	61.20406	0.00240258					
196.1	61.22411	0.002404928					
196.2	61.24416	0.002407401					
196.3	61.26421	0.002410114					
196.4	61.28429	0.002412659					
196.5	61.30436	0.002415103					
196.6	61.32443	0.002417706					
196.7	61.3445	0.00242012					
196.8	61.36458	0.002422942					
196.9	61.38465	0.002425296					
197	61.40472	0.002427796					
197.1	61.4248	0.002430309					
197.2	61.44485	0.00243284					
197.3	61.46491	0.002435407					
197.4	61.48498	0.00243778					
197.5	61.50506	0.002440311					
197.6	61.52511	0.002442824					
197.7	61.54518	0.002445339					
197.8	61.56524	0.002447835					
197.9	61.58528	0.002450297					
198	61.60535	0.002452925					
198.1	61.62537	0.002455452					
198.2	61.64539	0.002457788					
198.3	61.66541	0.002460168					
198.4	61.68541	0.002462823					
198.5	61.70541	0.00246549					
198.6	61.72541	0.002467791					
198.7	61.74541	0.002470328					
198.8	61.76543	0.002472805					
198.9	61.78541	0.002475464					
199	61.80539	0.002477816					
199.1	61.82536	0.002480176					
199.2	61.84532	0.002482791					
199.3	61.86528	0.002485299					
199.4	61.88521	0.002487795					
199.5	61.90513	0.002490289					
199.6	61.92516	0.002492774					
199.7	61.94517	0.002495301					
199.8	61.96533	0.002497814					
199.9	61.98511	0.002500202					
