#EXPORTTYPE:DATA SINGLE							
#FILE:A+.ngb-sla							
#FORMAT:NETZSCH5							
#FTYPE:ANSI							
#IDENTITY:A-2+							
#DECIMAL:POINT							
#SEPARATOR:SEMICOLON							
#MTYPE:DIL							
#INSTRUMENT:NETZSCH DIL 402SE							
#PROJECT:1							
#DATE/TIME:10.12.2019 13:35							
#CORR. FILE:							
#TEMPCAL:TCALZERO.TMX							
#LABORATORY:1							
#OPERATOR:1							
#REMARK:							
#SAMPLE:A-2+							
#SAMPLE LENGTH /mm:23.75							
#MATERIAL:							
#MEASMODE:Standard Expansion							
#M.RANGE /¶Ãm:20000							
#CORR. CODE:010							
#RANGE:-110°„C/5.0(K/min)/200°„C							
#SEGMENT:S1/1							
#SEG. 1:-110°„C/5.0(K/min)/200°„C							
							
##Temp./°„C	Time/min	dL/Lo					
-100	2.17211	-3.91048E-05					
-99.9	2.19091	-3.90072E-05					
-99.8	2.20965	-3.90271E-05					
-99.7	2.22837	-3.8986E-05					
-99.6	2.247	-3.9013E-05					
-99.5	2.26561	-3.88914E-05					
-99.4	2.28419	-3.89664E-05					
-99.3	2.30275	-3.88907E-05					
-99.2	2.3213	-3.88969E-05					
-99.1	2.33985	-3.88216E-05					
-99	2.35845	-3.86954E-05					
-98.9	2.37703	-3.87669E-05					
-98.8	2.39565	-3.8739E-05					
-98.7	2.41428	-3.86505E-05					
-98.6	2.43296	-3.85323E-05					
-98.5	2.45168	-3.85977E-05					
-98.4	2.47043	-3.84767E-05					
-98.3	2.4892	-3.84381E-05					
-98.2	2.50804	-3.831E-05					
-98.1	2.52695	-3.82771E-05					
-98	2.54588	-3.82301E-05					
-97.9	2.5649	-3.81787E-05					
-97.8	2.58396	-3.80156E-05					
-97.7	2.6031	-3.80436E-05					
-97.6	2.62232	-3.79124E-05					
-97.5	2.6416	-3.77625E-05					
-97.4	2.66095	-3.77549E-05					
-97.3	2.68037	-3.76405E-05					
-97.2	2.69986	-3.75184E-05					
-97.1	2.71944	-3.73922E-05					
-97	2.73908	-3.73173E-05					
-96.9	2.75878	-3.7182E-05					
-96.8	2.77855	-3.71613E-05					
-96.7	2.79838	-3.69411E-05					
-96.6	2.81822	-3.67913E-05					
-96.5	2.83813	-3.67102E-05					
-96.4	2.85808	-3.66211E-05					
-96.3	2.87809	-3.63484E-05					
-96.2	2.89815	-3.62696E-05					
-96.1	2.91826	-3.62599E-05					
-96	2.93843	-3.59246E-05					
-95.9	2.95865	-3.57908E-05					
-95.8	2.97887	-3.56857E-05					
-95.7	2.99911	-3.54936E-05					
-95.6	3.01939	-3.53331E-05					
-95.5	3.0397	-3.51029E-05					
-95.4	3.06002	-3.5083E-05					
-95.3	3.08037	-3.48036E-05					
-95.2	3.10075	-3.46231E-05					
-95.1	3.12109	-3.44688E-05					
-95	3.14142	-3.43684E-05					
-94.9	3.16176	-3.41507E-05					
-94.8	3.18211	-3.39872E-05					
-94.7	3.20247	-3.38157E-05					
-94.6	3.22286	-3.36967E-05					
-94.5	3.24322	-3.34864E-05					
-94.4	3.2636	-3.33224E-05					
-94.3	3.28399	-3.31899E-05					
-94.2	3.30434	-3.30639E-05					
-94.1	3.32468	-3.28944E-05					
-94	3.345	-3.27608E-05					
-93.9	3.36529	-3.26542E-05					
-93.8	3.3856	-3.25187E-05					
-93.7	3.4059	-3.23461E-05					
-93.6	3.4262	-3.22514E-05					
-93.5	3.44644	-3.21552E-05					
-93.4	3.46667	-3.19043E-05					
-93.3	3.48687	-3.19199E-05					
-93.2	3.50703	-3.17706E-05					
-93.1	3.52721	-3.16546E-05					
-93	3.54738	-3.15956E-05					
-92.9	3.56756	-3.1435E-05					
-92.8	3.58769	-3.14286E-05					
-92.7	3.60778	-3.127E-05					
-92.6	3.62786	-3.11677E-05					
-92.5	3.64789	-3.10857E-05					
-92.4	3.66793	-3.10655E-05					
-92.3	3.68792	-3.08623E-05					
-92.2	3.70791	-3.08556E-05					
-92.1	3.72792	-3.08225E-05					
-92	3.7479	-3.06751E-05					
-91.9	3.76787	-3.06216E-05					
-91.8	3.78782	-3.05056E-05					
-91.7	3.80774	-3.049E-05					
-91.6	3.82765	-3.03709E-05					
-91.5	3.84757	-3.03055E-05					
-91.4	3.86749	-3.02375E-05					
-91.3	3.88739	-3.01221E-05					
-91.2	3.90733	-3.0107E-05					
-91.1	3.92722	-2.99101E-05					
-91	3.94707	-2.99336E-05					
-90.9	3.96693	-2.98349E-05					
-90.8	3.98678	-2.97546E-05					
-90.7	4.00665	-2.96375E-05					
-90.6	4.02654	-2.96215E-05					
-90.5	4.04642	-2.95438E-05					
-90.4	4.06634	-2.9362E-05					
-90.3	4.08623	-2.93878E-05					
-90.2	4.10616	-2.93104E-05					
-90.1	4.12604	-2.92097E-05					
-90	4.14592	-2.91281E-05					
-89.9	4.16583	-2.91335E-05					
-89.8	4.18572	-2.90412E-05					
-89.7	4.20563	-2.89679E-05					
-89.6	4.22558	-2.88579E-05					
-89.5	4.24551	-2.88391E-05					
-89.4	4.26545	-2.87755E-05					
-89.3	4.28537	-2.86173E-05					
-89.2	4.30532	-2.86772E-05					
-89.1	4.32527	-2.85141E-05					
-89	4.34523	-2.84589E-05					
-88.9	4.36522	-2.84092E-05					
-88.8	4.38519	-2.83243E-05					
-88.7	4.40517	-2.83254E-05					
-88.6	4.42515	-2.81878E-05					
-88.5	4.44511	-2.82178E-05					
-88.4	4.4651	-2.80875E-05					
-88.3	4.48506	-2.81044E-05					
-88.2	4.50504	-2.79548E-05					
-88.1	4.52501	-2.78735E-05					
-88	4.54502	-2.79347E-05					
-87.9	4.56501	-2.77577E-05					
-87.8	4.58502	-2.77173E-05					
-87.7	4.60499	-2.76737E-05					
-87.6	4.62496	-2.77161E-05					
-87.5	4.64491	-2.7513E-05					
-87.4	4.6649	-2.74936E-05					
-87.3	4.68489	-2.74024E-05					
-87.2	4.70487	-2.73897E-05					
-87.1	4.72482	-2.73437E-05					
-87	4.74478	-2.72001E-05					
-86.9	4.76476	-2.72871E-05					
-86.8	4.7847	-2.71508E-05					
-86.7	4.80466	-2.72081E-05					
-86.6	4.82463	-2.70057E-05					
-86.5	4.84457	-2.71096E-05					
-86.4	4.86451	-2.69573E-05					
-86.3	4.88444	-2.69514E-05					
-86.2	4.90438	-2.69173E-05					
-86.1	4.92428	-2.67509E-05					
-86	4.94418	-2.68142E-05					
-85.9	4.9641	-2.6619E-05					
-85.8	4.984	-2.67093E-05					
-85.7	5.00386	-0.000026672					
-85.6	5.02374	-2.65962E-05					
-85.5	5.04363	-2.65094E-05					
-85.4	5.06351	-2.64593E-05					
-85.3	5.08335	-2.64731E-05					
-85.2	5.10321	-2.63116E-05					
-85.1	5.12305	-2.63412E-05					
-85	5.1429	-2.62479E-05					
-84.9	5.1627	-2.62981E-05					
-84.8	5.18252	-2.61777E-05					
-84.7	5.20236	-2.61541E-05					
-84.6	5.22216	-2.60976E-05					
-84.5	5.24198	-2.61061E-05					
-84.4	5.26182	-2.60137E-05					
-84.3	5.28165	-2.58882E-05					
-84.2	5.30146	-2.59818E-05					
-84.1	5.32128	-2.58718E-05					
-84	5.34111	-2.5825E-05					
-83.9	5.36094	-2.58586E-05					
-83.8	5.38073	-2.57443E-05					
-83.7	5.40056	-2.57548E-05					
-83.6	5.42041	-2.56124E-05					
-83.5	5.44024	-2.57388E-05					
-83.4	5.46008	-2.55819E-05					
-83.3	5.47991	-2.56402E-05					
-83.2	5.49973	-2.55155E-05					
-83.1	5.51957	-2.54999E-05					
-83	5.53939	-2.54927E-05					
-82.9	5.55924	-2.54038E-05					
-82.8	5.57911	-2.53347E-05					
-82.7	5.59894	-2.52513E-05					
-82.6	5.61878	-2.53144E-05					
-82.5	5.63863	-2.51566E-05					
-82.4	5.65846	-2.51315E-05					
-82.3	5.67826	-2.50916E-05					
-82.2	5.69809	-2.50601E-05					
-82.1	5.71791	-2.49548E-05					
-82	5.73773	-2.48716E-05					
-81.9	5.75756	-2.49673E-05					
-81.8	5.77741	-2.48381E-05					
-81.7	5.79721	-2.48227E-05					
-81.6	5.81701	-2.46767E-05					
-81.5	5.8368	-2.4755E-05					
-81.4	5.85661	-2.46332E-05					
-81.3	5.87641	-2.45979E-05					
-81.2	5.89621	-2.45847E-05					
-81.1	5.91601	-2.44694E-05					
-81	5.93581	-2.44711E-05					
-80.9	5.95561	-2.43322E-05					
-80.8	5.97541	-2.44061E-05					
-80.7	5.99522	-2.4262E-05					
-80.6	6.015	-2.4252E-05					
-80.5	6.03477	-2.4103E-05					
-80.4	6.05454	-2.41204E-05					
-80.3	6.0743	-2.40778E-05					
-80.2	6.09407	-2.39749E-05					
-80.1	6.11381	-2.39321E-05					
-80	6.13354	-2.38766E-05					
-79.9	6.15329	-2.38863E-05					
-79.8	6.173	-2.36899E-05					
-79.7	6.19271	-2.37325E-05					
-79.6	6.21245	-2.36715E-05					
-79.5	6.23217	-2.35737E-05					
-79.4	6.25191	-2.35681E-05					
-79.3	6.27161	-2.34218E-05					
-79.2	6.29133	-2.35128E-05					
-79.1	6.31106	-2.32965E-05					
-79	6.33078	-2.32393E-05					
-78.9	6.35049	-2.32385E-05					
-78.8	6.37022	-2.31664E-05					
-78.7	6.3899	-2.29901E-05					
-78.6	6.40958	-2.30288E-05					
-78.5	6.42931	-2.29565E-05					
-78.4	6.44903	-2.28101E-05					
-78.3	6.46872	-2.27783E-05					
-78.2	6.48843	-2.26952E-05					
-78.1	6.50808	-2.26707E-05					
-78	6.5278	-2.25501E-05					
-77.9	6.54749	-2.2481E-05					
-77.8	6.56717	-2.24168E-05					
-77.7	6.58687	-2.23381E-05					
-77.6	6.60656	-2.2325E-05					
-77.5	6.62627	-2.21509E-05					
-77.4	6.64598	-2.21601E-05					
-77.3	6.6657	-2.20037E-05					
-77.2	6.68542	-2.1955E-05					
-77.1	6.70516	-2.17322E-05					
-77	6.72487	-2.17667E-05					
-76.9	6.74457	-2.17179E-05					
-76.8	6.76428	-2.15354E-05					
-76.7	6.78395	-2.14287E-05					
-76.6	6.80365	-2.14368E-05					
-76.5	6.82333	-2.12967E-05					
-76.4	6.84305	-2.11369E-05					
-76.3	6.86276	-2.1079E-05					
-76.2	6.88244	-2.09983E-05					
-76.1	6.90217	-2.09123E-05					
-76	6.92194	-2.07157E-05					
-75.9	6.94167	-2.06873E-05					
-75.8	6.9614	-2.06082E-05					
-75.7	6.98114	-2.04395E-05					
-75.6	7.00089	-2.03367E-05					
-75.5	7.02063	-2.02297E-05					
-75.4	7.04034	-2.01866E-05					
-75.3	7.06005	-1.99725E-05					
-75.2	7.07978	-1.99137E-05					
-75.1	7.09951	-1.97969E-05					
-75	7.11921	-1.96842E-05					
-74.9	7.13894	-1.96405E-05					
-74.8	7.15869	-1.94202E-05					
-74.7	7.17844	-1.93561E-05					
-74.6	7.19821	-1.92644E-05					
-74.5	7.218	-1.91111E-05					
-74.4	7.23778	-1.898E-05					
-74.3	7.25752	-1.89087E-05					
-74.2	7.2773	-1.88082E-05					
-74.1	7.2971	-1.85591E-05					
-74	7.31689	-1.85846E-05					
-73.9	7.33667	-1.83665E-05					
-73.8	7.35645	-1.82148E-05					
-73.7	7.37626	-1.80366E-05					
-73.6	7.39604	-1.80553E-05					
-73.5	7.41583	-1.78397E-05					
-73.4	7.4356	-1.77168E-05					
-73.3	7.45541	-1.76166E-05					
-73.2	7.47519	-1.73531E-05					
-73.1	7.49495	-1.72138E-05					
-73	7.51473	-1.70008E-05					
-72.9	7.53451	-1.69804E-05					
-72.8	7.55427	-1.68102E-05					
-72.7	7.57405	-1.66105E-05					
-72.6	7.59384	-1.6449E-05					
-72.5	7.61359	-1.63804E-05					
-72.4	7.63333	-1.62287E-05					
-72.3	7.65304	-1.59801E-05					
-72.2	7.67279	-1.58646E-05					
-72.1	7.69251	-1.57076E-05					
-72	7.71221	-1.55352E-05					
-71.9	7.73189	-1.54361E-05					
-71.8	7.75158	-1.51354E-05					
-71.7	7.77126	-1.50167E-05					
-71.6	7.79096	-1.48988E-05					
-71.5	7.81063	-1.46619E-05					
-71.4	7.83033	-1.45245E-05					
-71.3	7.85002	-1.44399E-05					
-71.2	7.8697	-1.40983E-05					
-71.1	7.88939	-1.40228E-05					
-71	7.90908	-1.37498E-05					
-70.9	7.92876	-1.35935E-05					
-70.8	7.94844	-1.34079E-05					
-70.7	7.96814	-1.32205E-05					
-70.6	7.98781	-1.3054E-05					
-70.5	8.00746	-1.28934E-05					
-70.4	8.02714	-1.2604E-05					
-70.3	8.04683	-1.2419E-05					
-70.2	8.06654	-1.22854E-05					
-70.1	8.08624	-1.20618E-05					
-70	8.10594	-1.18443E-05					
-69.9	8.12567	-1.16157E-05					
-69.8	8.14539	-1.14041E-05					
-69.7	8.16513	-1.1235E-05					
-69.6	8.18488	-1.10147E-05					
-69.5	8.20462	-1.07331E-05					
-69.4	8.2244	-1.05949E-05					
-69.3	8.24417	-1.03617E-05					
-69.2	8.26395	-1.00157E-05					
-69.1	8.28373	-9.90765E-06					
-69	8.30349	-9.61279E-06					
-68.9	8.32326	-9.4831E-06					
-68.8	8.34305	-9.16783E-06					
-68.7	8.36284	-8.92034E-06					
-68.6	8.38264	-8.78956E-06					
-68.5	8.40246	-8.53994E-06					
-68.4	8.4223	-8.26833E-06					
-68.3	8.44212	-7.98461E-06					
-68.2	8.46196	-7.80402E-06					
-68.1	8.48181	-7.50663E-06					
-68	8.50164	-7.24162E-06					
-67.9	8.52149	-6.98185E-06					
-67.8	8.54134	-6.82646E-06					
-67.7	8.5612	-6.39351E-06					
-67.6	8.58108	-6.21093E-06					
-67.5	8.60096	-6.03089E-06					
-67.4	8.62083	-5.71728E-06					
-67.3	8.64068	-5.40864E-06					
-67.2	8.66053	-5.17395E-06					
-67.1	8.6804	-4.92021E-06					
-67	8.70027	-4.63999E-06					
-66.9	8.72017	-4.30407E-06					
-66.8	8.74004	-3.98972E-06					
-66.7	8.7599	-3.77307E-06					
-66.6	8.77977	-3.50859E-06					
-66.5	8.79963	-3.20108E-06					
-66.4	8.81947	-2.8853E-06					
-66.3	8.83931	-2.66305E-06					
-66.2	8.85918	-2.34413E-06					
-66.1	8.87902	-2.0041E-06					
-66	8.89887	-1.72135E-06					
-65.9	8.91873	-1.43162E-06					
-65.8	8.93856	-1.09748E-06					
-65.7	8.95838	-8.5397E-07					
-65.6	8.9782	-5.29226E-07					
-65.5	8.998	-2.05703E-07					
-65.4	9.01779	9.69794E-08					
-65.3	9.0376	3.96784E-07					
-65.2	9.05741	7.5982E-07					
-65.1	9.07723	1.05503E-06					
-65	9.09702	1.44448E-06					
-64.9	9.11685	1.74068E-06					
-64.8	9.13667	2.02101E-06					
-64.7	9.1565	2.39096E-06					
-64.6	9.17631	2.72513E-06					
-64.5	9.19614	3.06719E-06					
-64.4	9.21597	3.35273E-06					
-64.3	9.23579	3.76909E-06					
-64.2	9.2556	4.08348E-06					
-64.1	9.27542	4.45055E-06					
-64	9.29523	4.77932E-06					
-63.9	9.31505	5.08988E-06					
-63.8	9.33486	5.56096E-06					
-63.7	9.35467	5.85416E-06					
-63.6	9.37448	6.17566E-06					
-63.5	9.39431	6.55387E-06					
-63.4	9.41416	6.96291E-06					
-63.3	9.43398	7.24579E-06					
-63.2	9.45381	7.66871E-06					
-63.1	9.47364	8.06972E-06					
-63	9.49346	8.41374E-06					
-62.9	9.51327	8.75131E-06					
-62.8	9.53307	9.07145E-06					
-62.7	9.5529	9.54263E-06					
-62.6	9.57271	9.90054E-06					
-62.5	9.59254	1.01771E-05					
-62.4	9.61237	1.06338E-05					
-62.3	9.63218	1.11081E-05					
-62.2	9.65201	1.13866E-05					
-62.1	9.67186	1.18062E-05					
-62	9.69169	1.23096E-05					
-61.9	9.71155	1.25742E-05					
-61.8	9.73138	1.29735E-05					
-61.7	9.75122	1.33939E-05					
-61.6	9.77107	1.37601E-05					
-61.5	9.79094	1.42488E-05					
-61.4	9.81078	1.45482E-05					
-61.3	9.83063	1.49808E-05					
-61.2	9.85049	1.54023E-05					
-61.1	9.87034	1.57844E-05					
-61	9.89019	1.61369E-05					
-60.9	9.91003	1.663E-05					
-60.8	9.92992	1.70558E-05					
-60.7	9.94979	1.74112E-05					
-60.6	9.96962	1.78056E-05					
-60.5	9.98945	1.82593E-05					
-60.4	10.0093	1.86628E-05					
-60.3	10.02915	1.89664E-05					
-60.2	10.04902	1.94836E-05					
-60.1	10.06887	1.98994E-05					
-60	10.08871	2.03266E-05					
-59.9	10.10855	2.06817E-05					
-59.8	10.12839	2.11239E-05					
-59.7	10.14825	2.15553E-05					
-59.6	10.1681	2.19756E-05					
-59.5	10.18794	2.23356E-05					
-59.4	10.20778	2.28169E-05					
-59.3	10.22761	2.32887E-05					
-59.2	10.24744	2.36361E-05					
-59.1	10.26725	2.40348E-05					
-59	10.28708	2.4458E-05					
-58.9	10.30691	2.48681E-05					
-58.8	10.32673	2.52906E-05					
-58.7	10.34654	2.57E-05					
-58.6	10.36631	2.61415E-05					
-58.5	10.38614	2.65701E-05					
-58.4	10.40594	2.6992E-05					
-58.3	10.42573	2.73994E-05					
-58.2	10.44552	2.78735E-05					
-58.1	10.4653	2.8238E-05					
-58	10.48509	2.85916E-05					
-57.9	10.50488	2.91046E-05					
-57.8	10.52466	2.95351E-05					
-57.7	10.54445	2.99184E-05					
-57.6	10.56422	3.02722E-05					
-57.5	10.58401	3.07724E-05					
-57.4	10.60379	3.11945E-05					
-57.3	10.62355	3.15806E-05					
-57.2	10.64335	3.20171E-05					
-57.1	10.66313	3.24284E-05					
-57	10.68292	3.29145E-05					
-56.9	10.70272	3.32943E-05					
-56.8	10.72249	3.36964E-05					
-56.7	10.74227	3.41071E-05					
-56.6	10.76206	3.45659E-05					
-56.5	10.78188	3.48665E-05					
-56.4	10.80167	3.53407E-05					
-56.3	10.82146	3.58005E-05					
-56.2	10.84126	3.60782E-05					
-56.1	10.86104	3.65503E-05					
-56	10.88083	3.69589E-05					
-55.9	10.90063	3.74052E-05					
-55.8	10.9204	3.77076E-05					
-55.7	10.9402	3.81611E-05					
-55.6	10.95998	3.86221E-05					
-55.5	10.97977	3.90113E-05					
-55.4	10.99955	3.94159E-05					
-55.3	11.01936	3.97126E-05					
-55.2	11.03917	4.01646E-05					
-55.1	11.05895	4.05288E-05					
-55	11.07877	4.09627E-05					
-54.9	11.09856	4.13576E-05					
-54.8	11.11836	4.18017E-05					
-54.7	11.13819	4.21266E-05					
-54.6	11.15799	4.25415E-05					
-54.5	11.17781	4.28976E-05					
-54.4	11.19761	4.32541E-05					
-54.3	11.21742	4.36644E-05					
-54.2	11.23725	4.39525E-05					
-54.1	11.25706	4.43915E-05					
-54	11.27689	4.47992E-05					
-53.9	11.29672	4.50442E-05					
-53.8	11.31653	4.54898E-05					
-53.7	11.33635	4.5896E-05					
-53.6	11.35617	4.62761E-05					
-53.5	11.37602	4.65328E-05					
-53.4	11.39583	4.69522E-05					
-53.3	11.41563	4.73421E-05					
-53.2	11.43542	4.76864E-05					
-53.1	11.45521	4.80439E-05					
-53	11.475	4.84102E-05					
-52.9	11.49479	4.8795E-05					
-52.8	11.51459	4.91402E-05					
-52.7	11.53437	4.94545E-05					
-52.6	11.55413	4.98161E-05					
-52.5	11.57393	5.0208E-05					
-52.4	11.59368	5.05535E-05					
-52.3	11.61344	5.08381E-05					
-52.2	11.63321	5.1256E-05					
-52.1	11.65296	5.16802E-05					
-52	11.67271	5.18756E-05					
-51.9	11.69245	5.22166E-05					
-51.8	11.71224	5.26373E-05					
-51.7	11.732	5.28873E-05					
-51.6	11.75176	5.33095E-05					
-51.5	11.77151	5.35567E-05					
-51.4	11.79125	5.3988E-05					
-51.3	11.81102	5.43205E-05					
-51.2	11.83079	5.45504E-05					
-51.1	11.85055	5.49757E-05					
-51	11.87032	5.52709E-05					
-50.9	11.89008	5.56264E-05					
-50.8	11.90981	5.58774E-05					
-50.7	11.92955	5.62283E-05					
-50.6	11.94928	5.6611E-05					
-50.5	11.96905	5.69278E-05					
-50.4	11.9888	5.72105E-05					
-50.3	12.00858	5.75408E-05					
-50.2	12.02836	5.7876E-05					
-50.1	12.04811	5.81354E-05					
-50	12.06789	5.85048E-05					
-49.9	12.08764	5.87781E-05					
-49.8	12.10744	5.90914E-05					
-49.7	12.12715	5.93715E-05					
-49.6	12.14691	5.96407E-05					
-49.5	12.16665	5.99841E-05					
-49.4	12.1864	6.02736E-05					
-49.3	12.20615	6.05291E-05					
-49.2	12.2259	6.08136E-05					
-49.1	12.24562	6.12156E-05					
-49	12.26537	6.14499E-05					
-48.9	12.28512	6.17052E-05					
-48.8	12.30488	6.20263E-05					
-48.7	12.32463	6.23141E-05					
-48.6	12.34441	6.25739E-05					
-48.5	12.3642	6.28482E-05					
-48.4	12.38394	6.29432E-05					
-48.3	12.40369	6.3245E-05					
-48.2	12.42344	6.34227E-05					
-48.1	12.4432	6.35543E-05					
-48	12.46298	6.4016E-05					
-47.9	12.48273	6.42976E-05					
-47.8	12.50251	6.4474E-05					
-47.7	12.52225	6.47385E-05					
-47.6	12.54204	6.50935E-05					
-47.5	12.56182	6.53116E-05					
-47.4	12.5816	6.55352E-05					
-47.3	12.60139	6.59034E-05					
-47.2	12.62117	6.60968E-05					
-47.1	12.64096	6.64163E-05					
-47	12.66077	6.66193E-05					
-46.9	12.68055	6.69286E-05					
-46.8	12.70034	6.71866E-05					
-46.7	12.72013	6.73945E-05					
-46.6	12.73993	6.77163E-05					
-46.5	12.75969	6.80303E-05					
-46.4	12.77949	6.82631E-05					
-46.3	12.79931	6.83324E-05					
-46.2	12.8191	6.8659E-05					
-46.1	12.8389	6.88847E-05					
-46	12.8587	6.9065E-05					
-45.9	12.8785	6.92634E-05					
-45.8	12.89832	6.95294E-05					
-45.7	12.91813	6.97447E-05					
-45.6	12.93793	6.99209E-05					
-45.5	12.95774	7.01763E-05					
-45.4	12.97753	7.03565E-05					
-45.3	12.99734	7.06842E-05					
-45.2	13.01716	7.07902E-05					
-45.1	13.03698	7.10137E-05					
-45	13.05679	7.12882E-05					
-44.9	13.07661	7.14583E-05					
-44.8	13.09644	7.17096E-05					
-44.7	13.11628	7.18683E-05					
-44.6	13.13612	7.21666E-05					
-44.5	13.15594	7.22896E-05					
-44.4	13.17577	7.25131E-05					
-44.3	13.19556	7.26777E-05					
-44.2	13.21534	7.29589E-05					
-44.1	13.23516	7.31535E-05					
-44	13.25497	7.32603E-05					
-43.9	13.27476	7.35024E-05					
-43.8	13.29454	7.365E-05					
-43.7	13.31434	7.38666E-05					
-43.6	13.33412	7.39959E-05					
-43.5	13.3539	7.42549E-05					
-43.4	13.37367	7.44231E-05					
-43.3	13.39346	7.4594E-05					
-43.2	13.41323	7.47689E-05					
-43.1	13.43299	7.49778E-05					
-43	13.45278	7.52026E-05					
-42.9	13.47257	7.52214E-05					
-42.8	13.49236	7.55049E-05					
-42.7	13.51213	7.56247E-05					
-42.6	13.53191	7.58157E-05					
-42.5	13.55168	7.59358E-05					
-42.4	13.57148	7.60837E-05					
-42.3	13.59128	7.62676E-05					
-42.2	13.61108	7.63529E-05					
-42.1	13.63092	7.65922E-05					
-42	13.6507	7.67167E-05					
-41.9	13.67052	7.69336E-05					
-41.8	13.69036	7.69348E-05					
-41.7	13.71019	7.71866E-05					
-41.6	13.73001	7.73057E-05					
-41.5	13.74986	7.7357E-05					
-41.4	13.7697	7.7601E-05					
-41.3	13.78957	7.76788E-05					
-41.2	13.80941	7.78493E-05					
-41.1	13.82929	7.79922E-05					
-41	13.84914	7.80663E-05					
-40.9	13.86897	7.81105E-05					
-40.8	13.8888	0.000078448					
-40.7	13.90867	7.84202E-05					
-40.6	13.92852	7.84799E-05					
-40.5	13.94837	7.88293E-05					
-40.4	13.96823	7.87798E-05					
-40.3	13.98809	7.89581E-05					
-40.2	14.00796	7.89333E-05					
-40.1	14.02783	7.91486E-05					
-40	14.0477	7.92959E-05					
-39.9	14.0676	7.93254E-05					
-39.8	14.08746	7.94061E-05					
-39.7	14.10731	7.95166E-05					
-39.6	14.12716	7.96714E-05					
-39.5	14.14701	7.96166E-05					
-39.4	14.16685	7.98562E-05					
-39.3	14.18672	7.98854E-05					
-39.2	14.20656	7.99858E-05					
-39.1	14.22642	8.00256E-05					
-39	14.24625	8.02442E-05					
-38.9	14.2661	8.02524E-05					
-38.8	14.28596	8.03493E-05					
-38.7	14.30582	8.04425E-05					
-38.6	14.32565	8.04568E-05					
-38.5	14.34548	8.06768E-05					
-38.4	14.36534	8.06236E-05					
-38.3	14.38518	8.06919E-05					
-38.2	14.40502	8.07672E-05					
-38.1	14.42483	8.0842E-05					
-38	14.44464	8.08832E-05					
-37.9	14.46444	8.09213E-05					
-37.8	14.48425	8.11201E-05					
-37.7	14.50409	8.09887E-05					
-37.6	14.52394	8.11212E-05					
-37.5	14.54379	8.11342E-05					
-37.4	14.56363	8.11889E-05					
-37.3	14.58348	8.12629E-05					
-37.2	14.60331	8.12139E-05					
-37.1	14.62315	8.13689E-05					
-37	14.64299	8.13838E-05					
-36.9	14.66284	8.14014E-05					
-36.8	14.68268	8.13769E-05					
-36.7	14.70254	8.14991E-05					
-36.6	14.72239	8.14738E-05					
-36.5	14.74226	8.15216E-05					
-36.4	14.76212	8.15186E-05					
-36.3	14.78198	8.1528E-05					
-36.2	14.80183	8.16158E-05					
-36.1	14.82172	8.151E-05					
-36	14.8416	8.16452E-05					
-35.9	14.86151	8.15513E-05					
-35.8	14.88142	8.16201E-05					
-35.7	14.90131	8.15979E-05					
-35.6	14.9212	8.1555E-05					
-35.5	14.94107	8.16538E-05					
-35.4	14.96094	8.16191E-05					
-35.3	14.98084	8.15999E-05					
-35.2	15.00073	8.15205E-05					
-35.1	15.02062	8.16368E-05					
-35	15.04052	8.14984E-05			-35	8.14984E-05	
-34.9	15.06043	8.15066E-05			36	-0.001311844	
-34.8	15.08034	8.15204E-05			71	-0.001393342	-1.96245E-05
-34.7	15.10024	8.1448E-05					
-34.6	15.12014	8.15409E-05					
-34.5	15.14002	8.14093E-05					
-34.4	15.15994	8.14378E-05					
-34.3	15.17986	8.13758E-05					
-34.2	15.19977	8.13782E-05					
-34.1	15.21967	8.12452E-05					
-34	15.23957	8.12741E-05					
-33.9	15.25945	8.12102E-05					
-33.8	15.27935	8.10446E-05					
-33.7	15.29921	8.10965E-05					
-33.6	15.3191	8.09806E-05					
-33.5	15.33897	8.09768E-05					
-33.4	15.35888	8.07906E-05					
-33.3	15.37877	8.08581E-05					
-33.2	15.39867	8.07276E-05					
-33.1	15.41856	8.07208E-05					
-33	15.43848	8.05941E-05					
-32.9	15.45838	8.0529E-05					
-32.8	15.47827	8.05327E-05					
-32.7	15.49816	8.04275E-05					
-32.6	15.51805	8.03092E-05					
-32.5	15.53795	8.02566E-05					
-32.4	15.55787	8.02236E-05					
-32.3	15.57776	8.00409E-05					
-32.2	15.59767	7.99378E-05					
-32.1	15.61757	7.99422E-05					
-32	15.63747	7.98025E-05					
-31.9	15.65736	7.96558E-05					
-31.8	15.67729	7.95662E-05					
-31.7	15.69721	7.94679E-05					
-31.6	15.71715	7.92963E-05					
-31.5	15.73707	7.92159E-05					
-31.4	15.75702	7.90885E-05					
-31.3	15.77696	7.90013E-05					
-31.2	15.79691	7.87717E-05					
-31.1	15.81683	7.86675E-05					
-31	15.8368	7.85837E-05					
-30.9	15.85674	7.83969E-05					
-30.8	15.87666	7.821E-05					
-30.7	15.89659	7.81048E-05					
-30.6	15.91654	7.79698E-05					
-30.5	15.93648	7.78329E-05					
-30.4	15.95639	7.75529E-05					
-30.3	15.97632	7.75069E-05					
-30.2	15.99625	7.73407E-05					
-30.1	16.01617	7.71729E-05					
-30	16.0361	7.69786E-05					
-29.9	16.05602	7.67772E-05					
-29.8	16.07594	7.67007E-05					
-29.7	16.09583	7.64176E-05					
-29.6	16.11576	7.62356E-05					
-29.5	16.13569	7.61016E-05					
-29.4	16.15562	7.59428E-05					
-29.3	16.1755	7.56168E-05					
-29.2	16.19541	7.54824E-05					
-29.1	16.2153	7.53117E-05					
-29	16.23519	7.49953E-05					
-28.9	16.25506	7.48423E-05					
-28.8	16.27494	7.46216E-05					
-28.7	16.29483	7.44341E-05					
-28.6	16.31473	7.41498E-05					
-28.5	16.33462	7.39494E-05					
-28.4	16.35452	7.36858E-05					
-28.3	16.37443	7.34759E-05					
-28.2	16.3943	7.31687E-05					
-28.1	16.41419	7.28819E-05					
-28	16.43411	7.27273E-05					
-27.9	16.45401	7.24485E-05					
-27.8	16.47393	7.21494E-05					
-27.7	16.49385	7.19385E-05					
-27.6	16.51378	7.16278E-05					
-27.5	16.53369	7.13812E-05					
-27.4	16.55357	7.11071E-05					
-27.3	16.57347	7.09047E-05					
-27.2	16.59342	7.04739E-05					
-27.1	16.61335	7.02605E-05					
-27	16.63327	6.99796E-05					
-26.9	16.65321	6.96617E-05					
-26.8	16.67317	6.94197E-05					
-26.7	16.69312	6.89774E-05					
-26.6	16.71307	6.87765E-05					
-26.5	16.73302	6.84177E-05					
-26.4	16.75295	6.80576E-05					
-26.3	16.77289	6.77293E-05					
-26.2	16.79284	6.74729E-05					
-26.1	16.81277	6.70464E-05					
-26	16.8327	6.67031E-05					
-25.9	16.85264	6.6446E-05					
-25.8	16.8726	6.60595E-05					
-25.7	16.89252	6.56856E-05					
-25.6	16.91247	6.5312E-05					
-25.5	16.9324	6.50013E-05					
-25.4	16.95234	6.46248E-05					
-25.3	16.97229	6.4152E-05					
-25.2	16.99221	6.39161E-05					
-25.1	17.01213	6.3428E-05					
-25	17.03206	6.31045E-05					
-24.9	17.05198	6.26547E-05					
-24.8	17.07189	6.23461E-05					
-24.7	17.0918	6.19774E-05					
-24.6	17.1117	6.15054E-05					
-24.5	17.13161	6.11681E-05					
-24.4	17.15154	6.07351E-05					
-24.3	17.17146	6.03375E-05					
-24.2	17.19139	5.9857E-05					
-24.1	17.21132	0.000059517					
-24	17.23124	5.90804E-05					
-23.9	17.25119	5.85283E-05					
-23.8	17.27111	5.83113E-05					
-23.7	17.29106	5.76632E-05					
-23.6	17.31097	5.72787E-05					
-23.5	17.33089	5.69085E-05					
-23.4	17.35082	5.64723E-05					
-23.3	17.37074	5.59435E-05					
-23.2	17.39068	5.55259E-05					
-23.1	17.41061	5.50262E-05					
-23	17.43053	5.45741E-05					
-22.9	17.45047	5.41032E-05					
-22.8	17.4704	0.000053633					
-22.7	17.49034	5.31223E-05					
-22.6	17.51029	5.26917E-05					
-22.5	17.53024	5.21812E-05					
-22.4	17.55016	5.16993E-05					
-22.3	17.57006	5.12009E-05					
-22.2	17.58997	5.06685E-05					
-22.1	17.60988	5.01756E-05					
-22	17.62981	4.96682E-05					
-21.9	17.64973	4.91146E-05					
-21.8	17.66961	4.85517E-05					
-21.7	17.68948	4.81161E-05					
-21.6	17.70934	4.74994E-05					
-21.5	17.72924	4.6962E-05					
-21.4	17.7491	4.6411E-05					
-21.3	17.76899	4.58948E-05					
-21.2	17.78889	4.5343E-05					
-21.1	17.80877	4.47434E-05					
-21	17.82866	4.42291E-05					
-20.9	17.84858	4.35926E-05					
-20.8	17.86847	4.31251E-05					
-20.7	17.88834	4.24787E-05					
-20.6	17.90822	4.1837E-05					
-20.5	17.9281	4.13951E-05					
-20.4	17.94798	4.06993E-05					
-20.3	17.96792	4.017E-05					
-20.2	17.98785	3.96053E-05					
-20.1	18.00778	3.89776E-05					
-20	18.02769	3.83364E-05					
-19.9	18.0476	3.77569E-05					
-19.8	18.06752	3.71948E-05					
-19.7	18.08748	3.65018E-05					
-19.6	18.10744	3.59267E-05					
-19.5	18.12741	3.53123E-05					
-19.4	18.14736	3.46949E-05					
-19.3	18.1673	3.40778E-05					
-19.2	18.18725	3.3386E-05					
-19.1	18.20718	3.27676E-05					
-19	18.22712	3.20827E-05					
-18.9	18.24705	3.14328E-05					
-18.8	18.26697	3.07778E-05					
-18.7	18.28693	3.01245E-05					
-18.6	18.30689	2.94267E-05					
-18.5	18.32685	2.87417E-05					
-18.4	18.3468	2.81179E-05					
-18.3	18.36674	2.7299E-05					
-18.2	18.38667	2.66855E-05					
-18.1	18.40661	2.60162E-05					
-18	18.42654	2.5253E-05					
-17.9	18.44651	2.45366E-05					
-17.8	18.46647	2.38193E-05					
-17.7	18.48642	2.31199E-05					
-17.6	18.50635	2.22597E-05					
-17.5	18.5263	2.16217E-05					
-17.4	18.54623	2.08282E-05					
-17.3	18.56619	2.00957E-05					
-17.2	18.58614	1.93107E-05					
-17.1	18.6061	1.85691E-05					
-17	18.62609	1.78381E-05					
-16.9	18.64604	1.69552E-05					
-16.8	18.66602	1.61925E-05					
-16.7	18.68602	1.54123E-05					
-16.6	18.70598	1.45928E-05					
-16.5	18.72598	1.37619E-05					
-16.4	18.74594	1.29443E-05					
-16.3	18.76594	1.22138E-05					
-16.2	18.78591	1.12528E-05					
-16.1	18.8059	1.04905E-05					
-16	18.82586	9.65133E-06					
-15.9	18.84587	8.75943E-06					
-15.8	18.86584	7.9275E-06					
-15.7	18.88581	7.05157E-06					
-15.6	18.90578	6.24378E-06					
-15.5	18.92577	5.31038E-06					
-15.4	18.94576	4.39015E-06					
-15.3	18.96574	3.58054E-06					
-15.2	18.98575	2.53869E-06					
-15.1	19.00574	1.67837E-06					
-15	19.02573	7.58133E-07					
-14.9	19.04572	-1.36908E-07					
-14.8	19.06569	-1.09299E-06					
-14.7	19.08565	-2.12875E-06					
-14.6	19.1056	-2.86513E-06					
-14.5	19.12556	-3.99391E-06					
-14.4	19.14553	-4.92045E-06					
-14.3	19.16548	-5.90062E-06					
-14.2	19.18544	-6.84873E-06					
-14.1	19.2054	-7.91767E-06					
-14	19.22533	-8.8388E-06					
-13.9	19.24529	-9.77577E-06					
-13.8	19.26524	-1.09313E-05					
-13.7	19.28517	-1.18743E-05					
-13.6	19.30512	-1.29981E-05					
-13.5	19.32507	-1.39241E-05					
-13.4	19.345	-1.509E-05					
-13.3	19.36494	-1.61497E-05					
-13.2	19.3849	-1.70201E-05					
-13.1	19.40483	-1.83068E-05					
-13	19.42479	-1.93317E-05					
-12.9	19.44473	-2.04445E-05					
-12.8	19.46466	-2.15E-05					
-12.7	19.48463	-2.27461E-05					
-12.6	19.5046	-2.38401E-05					
-12.5	19.52454	-2.48799E-05					
-12.4	19.5445	-2.6147E-05					
-12.3	19.56447	-2.72754E-05					
-12.2	19.58445	-2.84691E-05					
-12.1	19.60441	-2.95528E-05					
-12	19.6244	-3.08484E-05					
-11.9	19.64435	-3.1982E-05					
-11.8	19.66432	-3.30934E-05					
-11.7	19.68429	-3.44952E-05					
-11.6	19.70429	-3.56353E-05					
-11.5	19.72427	-3.68558E-05					
-11.4	19.74427	-3.81133E-05					
-11.3	19.76428	-3.93732E-05					
-11.2	19.78427	-4.06395E-05					
-11.1	19.80426	-4.19067E-05					
-11	19.82423	-4.32237E-05					
-10.9	19.84421	-4.45282E-05					
-10.8	19.86422	-4.57588E-05					
-10.7	19.88422	-4.711E-05					
-10.6	19.90421	-4.84743E-05					
-10.5	19.92419	-4.97952E-05					
-10.4	19.94421	-5.10322E-05					
-10.3	19.96417	-5.24705E-05					
-10.2	19.98413	-5.3852E-05					
-10.1	20.00412	-5.50937E-05					
-10	20.02408	-5.66E-05					
-9.9	20.04405	-5.79355E-05					
-9.8	20.06405	-5.93779E-05					
-9.7	20.08401	-0.000060766					
-9.6	20.10399	-6.22212E-05					
-9.5	20.12395	-6.36653E-05					
-9.4	20.14392	-6.50576E-05					
-9.3	20.16387	-6.65213E-05					
-9.2	20.18383	-6.80371E-05					
-9.1	20.20379	-6.96357E-05					
-9	20.22376	-7.10274E-05					
-8.9	20.24372	-7.25161E-05					
-8.8	20.26366	-7.41518E-05					
-8.7	20.2836	-7.57158E-05					
-8.6	20.30355	-7.71816E-05					
-8.5	20.32352	-7.87438E-05					
-8.4	20.34349	-8.03898E-05					
-8.3	20.36346	-8.18856E-05					
-8.2	20.38343	-8.34947E-05					
-8.1	20.40339	-8.51127E-05					
-8	20.42336	-8.68551E-05					
-7.9	20.44334	-8.84072E-05					
-7.8	20.46333	-8.99866E-05					
-7.7	20.48331	-9.18286E-05					
-7.6	20.50331	-9.33574E-05					
-7.5	20.5233	-9.51207E-05					
-7.4	20.54329	-9.67569E-05					
-7.3	20.5633	-9.85647E-05					
-7.2	20.58327	-0.000100197					
-7.1	20.60327	-0.000101956					
-7	20.62325	-0.000103716					
-6.9	20.64324	-0.000105426					
-6.8	20.66322	-0.000107237					
-6.7	20.6832	-0.000108926					
-6.6	20.70319	-0.0001108					
-6.5	20.72318	-0.000112551					
-6.4	20.74313	-0.000114375					
-6.3	20.76309	-0.000116226					
-6.2	20.78305	-0.00011803					
-6.1	20.80303	-0.000119964					
-6	20.823	-0.000121757					
-5.9	20.84297	-0.000123699					
-5.8	20.86292	-0.00012555					
-5.7	20.88286	-0.000127537					
-5.6	20.9028	-0.000129315					
-5.5	20.92274	-0.000131287					
-5.4	20.94267	-0.000133197					
-5.3	20.96261	-0.000135016					
-5.2	20.98254	-0.00013698					
-5.1	21.0025	-0.000138813					
-5	21.02244	-0.000140893					
-4.9	21.0424	-0.000142718					
-4.8	21.06236	-0.000144651					
-4.7	21.08235	-0.000146599					
-4.6	21.10231	-0.000148637					
-4.5	21.12226	-0.000150706					
-4.4	21.1422	-0.000152675					
-4.3	21.16216	-0.000154912					
-4.2	21.18215	-0.000156898					
-4.1	21.20209	-0.000159191					
-4	21.22204	-0.000161175					
-3.9	21.24199	-0.000163396					
-3.8	21.26196	-0.00016555					
-3.7	21.28196	-0.000167683					
-3.6	21.30193	-0.000169906					
-3.5	21.32191	-0.000172153					
-3.4	21.34188	-0.000174435					
-3.3	21.36185	-0.000176567					
-3.2	21.38184	-0.000178987					
-3.1	21.40182	-0.000181237					
-3	21.42178	-0.000183535					
-2.9	21.44175	-0.00018591					
-2.8	21.46168	-0.000188189					
-2.7	21.48163	-0.000190558					
-2.6	21.50156	-0.000192809					
-2.5	21.52154	-0.000195214					
-2.4	21.5415	-0.000197525					
-2.3	21.56147	-0.000199958					
-2.2	21.58143	-0.000202302					
-2.1	21.60138	-0.000204755					
-2	21.62135	-0.000207209					
-1.9	21.64131	-0.000209539					
-1.8	21.66128	-0.000212014					
-1.7	21.68122	-0.00021451					
-1.6	21.70118	-0.00021705					
-1.5	21.72112	-0.000219505					
-1.4	21.74108	-0.000222062					
-1.3	21.76102	-0.000224631					
-1.2	21.78098	-0.00022725					
-1.1	21.80091	-0.000229829					
-1	21.82086	-0.000232373					
-0.9	21.84079	-0.000235121					
-0.8	21.86076	-0.000237756					
-0.7	21.88071	-0.000240404					
-0.6	21.90067	-0.000243098					
-0.5	21.92062	-0.000245909					
-0.4	21.94057	-0.000248571					
-0.3	21.96051	-0.000251328					
-0.2	21.98044	-0.000254277					
-0.1	22.00038	-0.000257072					
0	22.02032	-0.000259986					
0.1	22.04029	-0.000262741					
0.2	22.06026	-0.000265704					
0.3	22.08021	-0.000268706					
0.4	22.10015	-0.000271642					
0.5	22.12008	-0.000274535					
0.6	22.14003	-0.000277598					
0.7	22.15997	-0.00028062					
0.8	22.17993	-0.000283565					
0.9	22.19988	-0.000286665					
1	22.21984	-0.000289729					
1.1	22.23981	-0.000292798					
1.2	22.25976	-0.000295896					
1.3	22.27972	-0.000299093					
1.4	22.29969	-0.00030231					
1.5	22.31964	-0.000305475					
1.6	22.33961	-0.000308689					
1.7	22.35961	-0.000311988					
1.8	22.37958	-0.000315305					
1.9	22.39957	-0.000318503					
2	22.41956	-0.000321872					
2.1	22.43955	-0.000325232					
2.2	22.45952	-0.000328572					
2.3	22.47952	-0.000331921					
2.4	22.49954	-0.000335263					
2.5	22.51955	-0.000338826					
2.6	22.53957	-0.000342156					
2.7	22.55961	-0.000345611					
2.8	22.57963	-0.000349197					
2.9	22.59966	-0.000352687					
3	22.6197	-0.000356232					
3.1	22.63974	-0.000359727					
3.2	22.65976	-0.000363366					
3.3	22.67982	-0.000366852					
3.4	22.69984	-0.000370314					
3.5	22.71988	-0.00037393					
3.6	22.73991	-0.000377362					
3.7	22.75994	-0.000381054					
3.8	22.77996	-0.000384677					
3.9	22.79999	-0.000388511					
4	22.82002	-0.000392157					
4.1	22.84004	-0.00039601					
4.2	22.86005	-0.000399797					
4.3	22.88006	-0.000403631					
4.4	22.90005	-0.000407577					
4.5	22.92003	-0.000411365					
4.6	22.94	-0.000415314					
4.7	22.95996	-0.000419305					
4.8	22.9799	-0.000423146					
4.9	22.99987	-0.000426988					
5	23.01983	-0.000430938					
5.1	23.0398	-0.000434883					
5.2	23.05976	-0.00043883					
5.3	23.07974	-0.000442822					
5.4	23.09971	-0.000446847					
5.5	23.11967	-0.00045097					
5.6	23.13963	-0.000454967					
5.7	23.15959	-0.000459114					
5.8	23.17954	-0.000463349					
5.9	23.19949	-0.000467348					
6	23.21946	-0.000471576					
6.1	23.23943	-0.000475704					
6.2	23.25937	-0.000480013					
6.3	23.27932	-0.000484217					
6.4	23.29928	-0.000488611					
6.5	23.31924	-0.000492988					
6.6	23.33921	-0.000497333					
6.7	23.35917	-0.000501767					
6.8	23.37916	-0.000506131					
6.9	23.39912	-0.00051063					
7	23.4191	-0.000515035					
7.1	23.43904	-0.000519577					
7.2	23.45898	-0.000523953					
7.3	23.47892	-0.000528554					
7.4	23.49884	-0.000533072					
7.5	23.51876	-0.000537604					
7.6	23.5387	-0.000542242					
7.7	23.55862	-0.000546777					
7.8	23.57856	-0.000551579					
7.9	23.59851	-0.000556051					
8	23.61845	-0.000560829					
8.1	23.63839	-0.000565443					
8.2	23.65835	-0.000570223					
8.3	23.67833	-0.000574898					
8.4	23.69829	-0.000579601					
8.5	23.71821	-0.000584421					
8.6	23.73817	-0.000588993					
8.7	23.75811	-0.000593853					
8.8	23.77807	-0.000598464					
8.9	23.79803	-0.000603158					
9	23.81799	-0.00060773					
9.1	23.83797	-0.000612313					
9.2	23.85797	-0.000617076					
9.3	23.87795	-0.00062177					
9.4	23.89796	-0.000626597					
9.5	23.91798	-0.00063139					
9.6	23.93799	-0.000636394					
9.7	23.95801	-0.000641149					
9.8	23.97804	-0.000646091					
9.9	23.99808	-0.000650968					
10	24.01808	-0.000655796					
10.1	24.03808	-0.000660635					
10.2	24.05808	-0.000665262					
10.3	24.07807	-0.000670174					
10.4	24.09804	-0.000674901					
10.5	24.11804	-0.000679731					
10.6	24.13807	-0.000684438					
10.7	24.15806	-0.000689394					
10.8	24.17807	-0.000694207					
10.9	24.19809	-0.000698958					
11	24.21809	-0.000703835					
11.1	24.23808	-0.00070866					
11.2	24.25808	-0.000713598					
11.3	24.27804	-0.000718363					
11.4	24.29803	-0.000723338					
11.5	24.31798	-0.00072824					
11.6	24.33794	-0.000733092					
11.7	24.3579	-0.000738056					
11.8	24.37786	-0.000742871					
11.9	24.3978	-0.000747796					
12	24.41772	-0.000752667					
12.1	24.43769	-0.000757513					
12.2	24.45764	-0.000762394					
12.3	24.4776	-0.000767338					
12.4	24.49758	-0.000772244					
12.5	24.51755	-0.000777172					
12.6	24.53749	-0.000782188					
12.7	24.55744	-0.000787034					
12.8	24.57738	-0.000792037					
12.9	24.59734	-0.000796852					
13	24.61727	-0.000801864					
13.1	24.63721	-0.000806726					
13.2	24.65717	-0.000811549					
13.3	24.67709	-0.000816489					
13.4	24.69703	-0.000821354					
13.5	24.71699	-0.000826247					
13.6	24.73692	-0.000830932					
13.7	24.75685	-0.000835763					
13.8	24.7768	-0.000840339					
13.9	24.79674	-0.000844883					
14	24.81669	-0.000849541					
14.1	24.83666	-0.000854248					
14.2	24.85664	-0.000858986					
14.3	24.8766	-0.000863622					
14.4	24.89658	-0.000868346					
14.5	24.91654	-0.000873091					
14.6	24.93654	-0.000877715					
14.7	24.95653	-0.000882303					
14.8	24.97653	-0.000886938					
14.9	24.99653	-0.000891505					
15	25.01652	-0.000895958					
15.1	25.03653	-0.000900377					
15.2	25.05654	-0.000904727					
15.3	25.07654	-0.00090918					
15.4	25.09658	-0.000913576					
15.5	25.1166	-0.000917849					
15.6	25.13662	-0.000922204					
15.7	25.15666	-0.000926593					
15.8	25.17671	-0.0009308					
15.9	25.19672	-0.000934971					
16	25.21677	-0.000939299					
16.1	25.23678	-0.000943439					
16.2	25.25676	-0.000947549					
16.3	25.27675	-0.000951776					
16.4	25.29675	-0.000955991					
16.5	25.31673	-0.000960108					
16.6	25.33673	-0.000964219					
16.7	25.35672	-0.000968345					
16.8	25.3767	-0.000972427					
16.9	25.39668	-0.000976448					
17	25.41667	-0.00098049					
17.1	25.43665	-0.000984511					
17.2	25.45662	-0.000988519					
17.3	25.47659	-0.000992481					
17.4	25.49656	-0.000996389					
17.5	25.51653	-0.001000382					
17.6	25.53649	-0.001004305					
17.7	25.55644	-0.001008191					
17.8	25.57639	-0.001012111					
17.9	25.59635	-0.001015959					
18	25.61633	-0.001019849					
18.1	25.63628	-0.001023548					
18.2	25.65626	-0.00102745					
18.3	25.67623	-0.001031219					
18.4	25.69618	-0.001034882					
18.5	25.71616	-0.001038633					
18.6	25.73613	-0.001042411					
18.7	25.75607	-0.00104601					
18.8	25.77603	-0.001049652					
18.9	25.79598	-0.001053256					
19	25.81597	-0.001056915					
19.1	25.83597	-0.001060515					
19.2	25.85596	-0.001063897					
19.3	25.87594	-0.00106739					
19.4	25.8959	-0.0010708					
19.5	25.91588	-0.001074119					
19.6	25.93586	-0.001077153					
19.7	25.95587	-0.001080771					
19.8	25.97587	-0.001084026					
19.9	25.99586	-0.001087397					
20	26.01589	-0.001090631					
20.1	26.03588	-0.001093903					
20.2	26.05588	-0.001097203					
20.3	26.07587	-0.001100367					
20.4	26.09588	-0.001103644					
20.5	26.11587	-0.001106826					
20.6	26.13585	-0.001109867					
20.7	26.15582	-0.001113005					
20.8	26.17582	-0.001116116					
20.9	26.19582	-0.001119129					
21	26.2158	-0.00112207					
21.1	26.23576	-0.001124993					
21.2	26.25571	-0.001127865					
21.3	26.27568	-0.001130853					
21.4	26.29565	-0.001133486					
21.5	26.31562	-0.001136347					
21.6	26.33557	-0.001139121					
21.7	26.35551	-0.001141872					
21.8	26.37545	-0.001144432					
21.9	26.3954	-0.001147131					
22	26.41535	-0.001149888					
22.1	26.43526	-0.001152377					
22.2	26.45522	-0.00115499					
22.3	26.47518	-0.00115754					
22.4	26.49512	-0.001160214					
22.5	26.51508	-0.001162558					
22.6	26.53504	-0.001165079					
22.7	26.55504	-0.001167604					
22.8	26.57504	-0.001169981					
22.9	26.59502	-0.001172482					
23	26.61501	-0.001174759					
23.1	26.635	-0.001177194					
23.2	26.65498	-0.001179509					
23.3	26.67496	-0.001181823					
23.4	26.69494	-0.001184131					
23.5	26.71492	-0.001186518					
23.6	26.73489	-0.001188681					
23.7	26.75491	-0.001190902					
23.8	26.77492	-0.001193226					
23.9	26.79491	-0.001195328					
24	26.8149	-0.001197671					
24.1	26.83488	-0.001199676					
24.2	26.85488	-0.001201816					
24.3	26.87487	-0.001203947					
24.4	26.89485	-0.00120596					
24.5	26.91484	-0.001207975					
24.6	26.93483	-0.001209995					
24.7	26.9548	-0.001212027					
24.8	26.97476	-0.001213927					
24.9	26.99472	-0.001215949					
25	27.01469	-0.001217814					
25.1	27.03463	-0.001219697					
25.2	27.0546	-0.001221589					
25.3	27.07457	-0.001223408					
25.4	27.09455	-0.001225311					
25.5	27.11452	-0.001227051					
25.6	27.1345	-0.001228947					
25.7	27.1545	-0.001230672					
25.8	27.17445	-0.00123251					
25.9	27.19442	-0.001234123					
26	27.2144	-0.001235906					
26.1	27.23439	-0.001237634					
26.2	27.25439	-0.001239295					
26.3	27.27437	-0.001240958					
26.4	27.29436	-0.001242614					
26.5	27.31437	-0.001244274					
26.6	27.33437	-0.001245797					
26.7	27.35439	-0.001247391					
26.8	27.37441	-0.0012489					
26.9	27.39443	-0.001250496					
27	27.41445	-0.001252038					
27.1	27.43443	-0.001253412					
27.2	27.45444	-0.001254939					
27.3	27.47445	-0.001256451					
27.4	27.49443	-0.001257812					
27.5	27.51442	-0.001259238					
27.6	27.53443	-0.001260663					
27.7	27.55445	-0.001261961					
27.8	27.57444	-0.001263351					
27.9	27.59447	-0.001264627					
28	27.61449	-0.001265911					
28.1	27.63451	-0.001267275					
28.2	27.65451	-0.001268493					
28.3	27.6745	-0.001269639					
28.4	27.6945	-0.001270974					
28.5	27.71449	-0.001272212					
28.6	27.73447	-0.001273313					
28.7	27.75446	-0.001274524					
28.8	27.77443	-0.001275645					
28.9	27.7944	-0.001276733					
29	27.81438	-0.001277854					
29.1	27.83436	-0.001278961					
29.2	27.85436	-0.001280072					
29.3	27.87434	-0.00128111					
29.4	27.89432	-0.001282036					
29.5	27.91429	-0.001283161					
29.6	27.93427	-0.001284165					
29.7	27.95423	-0.001285112					
29.8	27.97418	-0.001286008					
29.9	27.99414	-0.001287043					
30	28.01408	-0.001287963					
30.1	28.03401	-0.001288792					
30.2	28.05392	-0.001289749					
30.3	28.07385	-0.001290531					
30.4	28.09378	-0.001291491					
30.5	28.11369	-0.001292211					
30.6	28.13362	-0.001292985					
30.7	28.15354	-0.001293809					
30.8	28.17347	-0.001294479					
30.9	28.19344	-0.001295246					
31	28.2134	-0.001295851					
31.1	28.23335	-0.00129669					
31.2	28.2533	-0.001297264					
31.3	28.27324	-0.00129796					
31.4	28.2932	-0.001298593					
31.5	28.31317	-0.00129927					
31.6	28.33313	-0.001299797					
31.7	28.35309	-0.00130035					
31.8	28.37306	-0.001301001					
31.9	28.39302	-0.001301563					
32	28.41299	-0.001302082					
32.1	28.43298	-0.00130259					
32.2	28.45298	-0.001303163					
32.3	28.47301	-0.001303617					
32.4	28.49304	-0.001304034					
32.5	28.51305	-0.001304575					
32.6	28.53308	-0.001305031					
32.7	28.55309	-0.001305308					
32.8	28.57309	-0.001305729					
32.9	28.59308	-0.001306188					
33	28.61309	-0.001306598					
33.1	28.6331	-0.001306893					
33.2	28.65311	-0.001307341					
33.3	28.6731	-0.001307613					
33.4	28.69311	-0.001308083					
33.5	28.71312	-0.001308287					
33.6	28.73311	-0.001308701					
33.7	28.75313	-0.001308964					
33.8	28.77313	-0.001309192					
33.9	28.79314	-0.001309486					
34	28.81312	-0.001309724					
34.1	28.8331	-0.001310026					
34.2	28.85306	-0.001310169					
34.3	28.87302	-0.001310451					
34.4	28.89299	-0.001310573					
34.5	28.91293	-0.001310785					
34.6	28.93288	-0.001310934					
34.7	28.95283	-0.001311113					
34.8	28.97279	-0.001311339					
34.9	28.99276	-0.001311324					
35	29.01272	-0.001311487					
35.1	29.03266	-0.001311578					
35.2	29.05261	-0.001311693					
35.3	29.07255	-0.001311686					
35.4	29.0925	-0.001311761					
35.5	29.11246	-0.001311824					
35.6	29.1324	-0.001311781					
35.7	29.15236	-0.001311899					
35.8	29.17232	-0.001311809					
35.9	29.19228	-0.001311943					
36	29.21224	-0.001311844					
36.1	29.23221	-0.001311807					
36.2	29.25218	-0.001311777					
36.3	29.27214	-0.001311693					
36.4	29.2921	-0.001311593					
36.5	29.31205	-0.001311508					
36.6	29.33201	-0.001311499					
36.7	29.35196	-0.001311217					
36.8	29.37192	-0.001311184					
36.9	29.39188	-0.001310909					
37	29.41183	-0.001310831					
37.1	29.43177	-0.001310676					
37.2	29.45173	-0.001310455					
37.3	29.47169	-0.001310193					
37.4	29.49165	-0.001310003					
37.5	29.51162	-0.001309844					
37.6	29.53157	-0.001309406					
37.7	29.55154	-0.001309262					
37.8	29.57148	-0.001308935					
37.9	29.59144	-0.001308574					
38	29.6114	-0.001308349					
38.1	29.63134	-0.001308071					
38.2	29.65133	-0.001307761					
38.3	29.6713	-0.001307325					
38.4	29.69125	-0.001307072					
38.5	29.71126	-0.00130672					
38.6	29.73126	-0.001306386					
38.7	29.75126	-0.001305952					
38.8	29.77127	-0.001305626					
38.9	29.7913	-0.001305396					
39	29.81131	-0.001304913					
39.1	29.83133	-0.001304598					
39.2	29.85136	-0.001304178					
39.3	29.87134	-0.001303805					
39.4	29.89137	-0.001303312					
39.5	29.91141	-0.001302939					
39.6	29.9314	-0.001302508					
39.7	29.95141	-0.00130201					
39.8	29.97143	-0.001301609					
39.9	29.99145	-0.001301061					
40	30.01146	-0.001300675					
40.1	30.03146	-0.001300093					
40.2	30.05148	-0.001299641					
40.3	30.07146	-0.001299112					
40.4	30.09148	-0.001298616					
40.5	30.11148	-0.001297977					
40.6	30.13145	-0.001297436					
40.7	30.15143	-0.001296937					
40.8	30.17137	-0.001296252					
40.9	30.1913	-0.001295735					
41	30.21125	-0.00129519					
41.1	30.2312	-0.001294578					
41.2	30.25114	-0.001293966					
41.3	30.27108	-0.001293391					
41.4	30.29103	-0.001292753					
41.5	30.31092	-0.001292159					
41.6	30.33084	-0.001291517					
41.7	30.3508	-0.001290898					
41.8	30.37074	-0.001290186					
41.9	30.39068	-0.001289504					
42	30.41059	-0.001288826					
42.1	30.4305	-0.001288208					
42.2	30.45043	-0.0012875					
42.3	30.47037	-0.001286704					
42.4	30.49029	-0.00128611					
42.5	30.51021	-0.001285372					
42.6	30.53013	-0.001284605					
42.7	30.55006	-0.001283893					
42.8	30.57002	-0.001283143					
42.9	30.58998	-0.001282416					
43	30.60993	-0.001281519					
43.1	30.62987	-0.001280834					
43.2	30.64982	-0.001279902					
43.3	30.66979	-0.001279202					
43.4	30.68976	-0.001278294					
43.5	30.70973	-0.001277574					
43.6	30.72972	-0.001276714					
43.7	30.74969	-0.001275877					
43.8	30.76967	-0.001274959					
43.9	30.78964	-0.001274157					
44	30.80962	-0.001273297					
44.1	30.82962	-0.001272326					
44.2	30.84961	-0.001271538					
44.3	30.86962	-0.001270603					
44.4	30.88961	-0.001269696					
44.5	30.90959	-0.001268821					
44.6	30.92959	-0.001267861					
44.7	30.9496	-0.001267115					
44.8	30.9696	-0.001266011					
44.9	30.98957	-0.001265164					
45	31.00956	-0.001264222					
45.1	31.02956	-0.001263236					
45.2	31.04955	-0.001262305					
45.3	31.06952	-0.001261371					
45.4	31.08947	-0.00126041					
45.5	31.10943	-0.001259356					
45.6	31.12941	-0.001258432					
45.7	31.14937	-0.001257467					
45.8	31.16936	-0.001256496					
45.9	31.18932	-0.001255327					
46	31.20927	-0.001254366					
46.1	31.22925	-0.001253456					
46.2	31.24923	-0.001252302					
46.3	31.2692	-0.001251273					
46.4	31.28916	-0.001250305					
46.5	31.30914	-0.00124919					
46.6	31.32915	-0.001248141					
46.7	31.34913	-0.001247076					
46.8	31.36912	-0.001246009					
46.9	31.38911	-0.001244999					
47	31.40911	-0.00124387					
47.1	31.42911	-0.001242793					
47.2	31.44911	-0.0012417					
47.3	31.46913	-0.001240599					
47.4	31.48914	-0.001239497					
47.5	31.50917	-0.001238351					
47.6	31.5292	-0.001237232					
47.7	31.54921	-0.001236136					
47.8	31.56923	-0.001235079					
47.9	31.58926	-0.001233817					
48	31.60927	-0.001232675					
48.1	31.62929	-0.001231511					
48.2	31.64929	-0.00123043					
48.3	31.66931	-0.001229279					
48.4	31.68933	-0.001227967					
48.5	31.70934	-0.001226923					
48.6	31.72937	-0.001225769					
48.7	31.7494	-0.001224469					
48.8	31.76941	-0.001223354					
48.9	31.78943	-0.00122216					
49	31.80944	-0.001220851					
49.1	31.82946	-0.001219749					
49.2	31.84945	-0.001218512					
49.3	31.86946	-0.001217326					
49.4	31.88946	-0.001216119					
49.5	31.90948	-0.001214774					
49.6	31.92949	-0.001213601					
49.7	31.94952	-0.001212402					
49.8	31.96953	-0.001211111					
49.9	31.98952	-0.00120991					
50	32.00952	-0.001208685					
50.1	32.02953	-0.001207429					
50.2	32.04951	-0.001206037					
50.3	32.06952	-0.001204943					
50.4	32.08954	-0.001203569					
50.5	32.10957	-0.001202309					
50.6	32.12962	-0.001201089					
50.7	32.14964	-0.001199786					
50.8	32.16964	-0.001198512					
50.9	32.18965	-0.001197168					
51	32.2097	-0.001195885					
51.1	32.22971	-0.001194591					
51.2	32.24976	-0.001193186					
51.3	32.26979	-0.001192004					
51.4	32.28982	-0.001190797					
51.5	32.30985	-0.001189361					
51.6	32.32987	-0.001188075					
51.7	32.3499	-0.001186851					
51.8	32.3699	-0.00118541					
51.9	32.38994	-0.001184118					
52	32.40996	-0.001182796					
52.1	32.43	-0.001181421					
52.2	32.45002	-0.00118001					
52.3	32.47007	-0.001178649					
52.4	32.49006	-0.001177264					
52.5	32.51008	-0.001175919					
52.6	32.53007	-0.001174449					
52.7	32.55004	-0.00117322					
52.8	32.57001	-0.00117176					
52.9	32.58998	-0.001170319					
53	32.60995	-0.001168936					
53.1	32.6299	-0.001167598					
53.2	32.64987	-0.00116622					
53.3	32.66985	-0.001164734					
53.4	32.6898	-0.001163362					
53.5	32.70978	-0.001161993					
53.6	32.72974	-0.001160483					
53.7	32.74968	-0.00115905					
53.8	32.76963	-0.001157676					
53.9	32.78958	-0.001156275					
54	32.80953	-0.001154789					
54.1	32.82946	-0.001153407					
54.2	32.8494	-0.001151884					
54.3	32.86934	-0.00115057					
54.4	32.88927	-0.001149063					
54.5	32.90924	-0.001147714					
54.6	32.92917	-0.001146237					
54.7	32.94912	-0.001144669					
54.8	32.96907	-0.001143287					
54.9	32.989	-0.001141792					
55	33.00896	-0.001140365					
55.1	33.02893	-0.001138829					
55.2	33.04887	-0.001137403					
55.3	33.06883	-0.00113594					
55.4	33.08876	-0.001134346					
55.5	33.10874	-0.001132974					
55.6	33.12869	-0.001131398					
55.7	33.14866	-0.001129953					
55.8	33.16862	-0.001128311					
55.9	33.18861	-0.001126963					
56	33.20859	-0.001125425					
56.1	33.22858	-0.001123805					
56.2	33.24858	-0.001122267					
56.3	33.26857	-0.001120772					
56.4	33.28856	-0.001119269					
56.5	33.30854	-0.001117625					
56.6	33.32852	-0.0011161					
56.7	33.3485	-0.001114614					
56.8	33.36847	-0.001113057					
56.9	33.38847	-0.001111369					
57	33.40847	-0.001109951					
57.1	33.42845	-0.001108387					
57.2	33.44843	-0.001106729					
57.3	33.46843	-0.001105172					
57.4	33.48843	-0.00110358					
57.5	33.5084	-0.001101993					
57.6	33.52836	-0.001100402					
57.7	33.54833	-0.001098739					
57.8	33.56831	-0.001097189					
57.9	33.58828	-0.001095601					
58	33.60825	-0.001093934					
58.1	33.62819	-0.001092345					
58.2	33.64814	-0.001090695					
58.3	33.6681	-0.001089027					
58.4	33.68807	-0.001087307					
58.5	33.70802	-0.001085676					
58.6	33.72797	-0.001084001					
58.7	33.7479	-0.001082428					
58.8	33.76785	-0.001082053					
58.9	33.78781	-0.001080087					
59	33.80773	-0.001078409					
59.1	33.8277	-0.001076616					
59.2	33.84765	-0.001074885					
59.3	33.86758	-0.001073112					
59.4	33.88751	-0.001071409					
59.5	33.90745	-0.001069726					
59.6	33.92741	-0.001067927					
59.7	33.94736	-0.001066249					
59.8	33.96731	-0.001064491					
59.9	33.98725	-0.001062779					
60	34.00719	-0.001061051					
60.1	34.02712	-0.00105927					
60.2	34.04708	-0.001057605					
60.3	34.06705	-0.00105588					
60.4	34.08698	-0.001054118					
60.5	34.10694	-0.001052244					
60.6	34.12691	-0.001050717					
60.7	34.14685	-0.001048938					
60.8	34.16684	-0.001047143					
60.9	34.1868	-0.001045507					
61	34.20674	-0.001043737					
61.1	34.22672	-0.001042032					
61.2	34.24668	-0.001040225					
61.3	34.26666	-0.001038517					
61.4	34.28665	-0.00103678					
61.5	34.30665	-0.001035037					
61.6	34.32663	-0.001033326					
61.7	34.34662	-0.001031559					
61.8	34.3666	-0.001029789					
61.9	34.38657	-0.001027957					
62	34.40651	-0.001026182					
62.1	34.42648	-0.001024359					
62.2	34.44646	-0.001022484					
62.3	34.46644	-0.001020716					
62.4	34.48643	-0.001018895					
62.5	34.50644	-0.001017027					
62.6	34.52644	-0.001015223					
62.7	34.54644	-0.001013378					
62.8	34.56646	-0.001011536					
62.9	34.58648	-0.001009639					
63	34.60649	-0.001007815					
63.1	34.62652	-0.001005986					
63.2	34.64653	-0.001004161					
63.3	34.66651	-0.001002341					
63.4	34.6865	-0.001000393					
63.5	34.70647	-0.000998655					
63.6	34.72644	-0.000996646					
63.7	34.74642	-0.000994841					
63.8	34.76641	-0.000992996					
63.9	34.7864	-0.000991113					
64	34.80645	-0.000989215					
64.1	34.82648	-0.00098733					
64.2	34.84651	-0.000985543					
64.3	34.86654	-0.000983547					
64.4	34.88656	-0.000981764					
64.5	34.90656	-0.000979769					
64.6	34.92656	-0.000978005					
64.7	34.94656	-0.000976036					
64.8	34.96657	-0.000974116					
64.9	34.98657	-0.000972343					
65	35.00657	-0.000970366					
65.1	35.0266	-0.000968439					
65.2	35.04663	-0.00096657					
65.3	35.06665	-0.000964703					
65.4	35.08669	-0.000962719					
65.5	35.10675	-0.000960833					
65.6	35.12681	-0.000958944					
65.7	35.14688	-0.000957003					
65.8	35.16692	-0.000955069					
65.9	35.18695	-0.000953182					
66	35.207	-0.00095139					
66.1	35.22704	-0.000949356					
66.2	35.24709	-0.000947501					
66.3	35.26713	-0.000945697					
66.4	35.28719	-0.000943708					
66.5	35.30723	-0.000941786					
66.6	35.32727	-0.000939812					
66.7	35.34733	-0.000937998					
66.8	35.36738	-0.000936016					
66.9	35.3874	-0.000934127					
67	35.40743	-0.000932183					
67.1	35.42745	-0.000930271					
67.2	35.44746	-0.000928366					
67.3	35.46749	-0.000926325					
67.4	35.48749	-0.000924514					
67.5	35.50748	-0.000922506					
67.6	35.52746	-0.000920595					
67.7	35.54745	-0.000918649					
67.8	35.56744	-0.000916733					
67.9	35.58744	-0.000914825					
68	35.60747	-0.000912753					
68.1	35.62747	-0.000910843					
68.2	35.64744	-0.000909009					
68.3	35.66742	-0.000906973					
68.4	35.68738	-0.000904989					
68.5	35.70734	-0.000903124					
68.6	35.72732	-0.000901139					
68.7	35.74727	-0.000899188					
68.8	35.76724	-0.000897245					
68.9	35.7872	-0.000895336					
69	35.80716	-0.000893377					
69.1	35.82716	-0.000891356					
69.2	35.84712	-0.000889472					
69.3	35.86705	-0.000887547					
69.4	35.88701	-0.000885449					
69.5	35.90701	-0.00088361					
69.6	35.927	-0.000881652					
69.7	35.94699	-0.000879664					
69.8	35.96695	-0.000877644					
69.9	35.98692	-0.000875681					
70	36.00694	-0.000873708					
70.1	36.02689	-0.00087174					
70.2	36.04689	-0.000869729					
70.3	36.06687	-0.000867711					
70.4	36.08688	-0.000865797					
70.5	36.10689	-0.000863723					
70.6	36.12687	-0.000861718					
70.7	36.14688	-0.000859697					
70.8	36.16684	-0.000857731					
70.9	36.18683	-0.000855715					
71	36.20684	-0.00085369					
71.1	36.22685	-0.000851768					
71.2	36.24682	-0.000849752					
71.3	36.26689	-0.000847692					
71.4	36.28694	-0.000845669					
71.5	36.30698	-0.00084365					
71.6	36.327	-0.000841505					
71.7	36.34701	-0.000839449					
71.8	36.36704	-0.000837408					
71.9	36.38706	-0.000835204					
72	36.40708	-0.000833235					
72.1	36.4271	-0.000831045					
72.2	36.44712	-0.000829044					
72.3	36.46715	-0.00082693					
72.4	36.48719	-0.000824798					
72.5	36.50719	-0.000822729					
72.6	36.5272	-0.000820552					
72.7	36.5472	-0.000818488					
72.8	36.56722	-0.000816347					
72.9	36.58725	-0.000814325					
73	36.60728	-0.000812121					
73.1	36.62728	-0.000810082					
73.2	36.64727	-0.000807975					
73.3	36.66727	-0.00080576					
73.4	36.68723	-0.000803862					
73.5	36.7072	-0.000801692					
73.6	36.72718	-0.000799674					
73.7	36.74716	-0.000797543					
73.8	36.76712	-0.000795565					
73.9	36.78709	-0.000793436					
74	36.80705	-0.000791304					
74.1	36.82698	-0.000789378					
74.2	36.84694	-0.000787191					
74.3	36.86689	-0.00078523					
74.4	36.88682	-0.000783003					
74.5	36.90675	-0.000781088					
74.6	36.92673	-0.000778891					
74.7	36.94667	-0.000776814					
74.8	36.96662	-0.000774606					
74.9	36.98655	-0.000772459					
75	37.00646	-0.000770338					
75.1	37.0264	-0.000768108					
75.2	37.04634	-0.000766104					
75.3	37.06629	-0.000763837					
75.4	37.08622	-0.000761818					
75.5	37.10615	-0.000759527					
75.6	37.12607	-0.000757468					
75.7	37.14599	-0.000755305					
75.8	37.16592	-0.000753075					
75.9	37.18589	-0.000750949					
76	37.20585	-0.000748715					
76.1	37.22579	-0.000746634					
76.2	37.24576	-0.000744288					
76.3	37.2657	-0.00074215					
76.4	37.28567	-0.000740022					
76.5	37.30564	-0.000737754					
76.6	37.32561	-0.000735618					
76.7	37.34556	-0.00073343					
76.8	37.36555	-0.00073132					
76.9	37.38557	-0.000728977					
77	37.40555	-0.000726914					
77.1	37.42558	-0.000724648					
77.2	37.4456	-0.000722491					
77.3	37.46561	-0.00072029					
77.4	37.48563	-0.000717996					
77.5	37.50566	-0.000715912					
77.6	37.5257	-0.000713677					
77.7	37.54574	-0.00071146					
77.8	37.56578	-0.000709268					
77.9	37.58582	-0.000707001					
78	37.60584	-0.000704913					
78.1	37.62586	-0.000702628					
78.2	37.64591	-0.000700505					
78.3	37.66593	-0.000698293					
78.4	37.68597	-0.000696121					
78.5	37.706	-0.000693832					
78.6	37.72599	-0.000691749					
78.7	37.74601	-0.000689548					
78.8	37.76604	-0.000687316					
78.9	37.78603	-0.000685141					
79	37.80603	-0.000682877					
79.1	37.82606	-0.000680728					
79.2	37.84607	-0.000678456					
79.3	37.86608	-0.00067623					
79.4	37.8861	-0.000674084					
79.5	37.90612	-0.000671868					
79.6	37.9261	-0.000669534					
79.7	37.94607	-0.000667375					
79.8	37.96605	-0.000665189					
79.9	37.98604	-0.000663009					
80	38.00602	-0.000660664					
80.1	38.02598	-0.000658559					
80.2	38.04597	-0.000656324					
80.3	38.06593	-0.000654035					
80.4	38.08591	-0.000651808					
80.5	38.10587	-0.000649668					
80.6	38.12586	-0.000647472					
80.7	38.14585	-0.000645264					
80.8	38.16583	-0.000643015					
80.9	38.18583	-0.000640816					
81	38.20584	-0.000638683					
81.1	38.22582	-0.000636411					
81.2	38.24578	-0.000634299					
81.3	38.26575	-0.000632054					
81.4	38.2857	-0.000629806					
81.5	38.30567	-0.000627604					
81.6	38.32562	-0.000625432					
81.7	38.34558	-0.000623247					
81.8	38.36557	-0.00062097					
81.9	38.38555	-0.000618841					
82	38.40553	-0.000616529					
82.1	38.42554	-0.000614479					
82.2	38.44555	-0.000612047					
82.3	38.46556	-0.000609939					
82.4	38.48558	-0.000607758					
82.5	38.50558	-0.000605453					
82.6	38.52556	-0.000603216					
82.7	38.54557	-0.000600996					
82.8	38.56556	-0.000598844					
82.9	38.58555	-0.000596471					
83	38.60552	-0.000594382					
83.1	38.62549	-0.000592103					
83.2	38.64549	-0.000589872					
83.3	38.66547	-0.000587526					
83.4	38.68546	-0.000585286					
83.5	38.70544	-0.000583035					
83.6	38.72543	-0.000580653					
83.7	38.74545	-0.000578414					
83.8	38.76545	-0.000576072					
83.9	38.78543	-0.000573881					
84	38.80541	-0.000571472					
84.1	38.82538	-0.000569224					
84.2	38.84536	-0.000566973					
84.3	38.86531	-0.000564574					
84.4	38.88527	-0.000562387					
84.5	38.90524	-0.000560083					
84.6	38.92522	-0.000557842					
84.7	38.94519	-0.000555517					
84.8	38.96514	-0.00055328					
84.9	38.9851	-0.000551023					
85	39.00508	-0.000548772					
85.1	39.02505	-0.000546582					
85.2	39.04502	-0.000544278					
85.3	39.06497	-0.000542134					
85.4	39.08492	-0.000539822					
85.5	39.10489	-0.000537612					
85.6	39.12486	-0.00053534					
85.7	39.14481	-0.000533176					
85.8	39.16476	-0.000530883					
85.9	39.18469	-0.000528534					
86	39.20463	-0.000526252					
86.1	39.22456	-0.000523919					
86.2	39.2445	-0.000521582					
86.3	39.26443	-0.000519253					
86.4	39.2844	-0.000517046					
86.5	39.30438	-0.000514606					
86.6	39.32435	-0.000512304					
86.7	39.34434	-0.000509952					
86.8	39.36432	-0.00050759					
86.9	39.38433	-0.000505308					
87	39.40433	-0.000502846					
87.1	39.42432	-0.000500635					
87.2	39.44432	-0.000498257					
87.3	39.46434	-0.000495898					
87.4	39.48436	-0.000493462					
87.5	39.50437	-0.00049113					
87.6	39.52438	-0.00048889					
87.7	39.5444	-0.000486436					
87.8	39.56443	-0.000484067					
87.9	39.58448	-0.000481701					
88	39.60455	-0.000479397					
88.1	39.6246	-0.000476956					
88.2	39.64465	-0.000474601					
88.3	39.66468	-0.000472274					
88.4	39.68474	-0.000469931					
88.5	39.70479	-0.000467533					
88.6	39.72482	-0.000465124					
88.7	39.74484	-0.000462829					
88.8	39.76484	-0.000460357					
88.9	39.78484	-0.000458071					
89	39.80483	-0.000455685					
89.1	39.82485	-0.0004534					
89.2	39.84486	-0.000451007					
89.3	39.86488	-0.000448645					
89.4	39.88492	-0.000446337					
89.5	39.90494	-0.000443896					
89.6	39.92494	-0.000441577					
89.7	39.94495	-0.000439264					
89.8	39.96497	-0.000436858					
89.9	39.98496	-0.000434522					
90	40.00496	-0.000432132					
90.1	40.02494	-0.000429782					
90.2	40.04495	-0.000427471					
90.3	40.06495	-0.00042509					
90.4	40.08494	-0.000422722					
90.5	40.10493	-0.000420381					
90.6	40.1249	-0.000418072					
90.7	40.14488	-0.000415645					
90.8	40.16488	-0.000413342					
90.9	40.18487	-0.000410927					
91	40.20486	-0.000408603					
91.1	40.22486	-0.000406177					
91.2	40.24484	-0.000403832					
91.3	40.26481	-0.000401553					
91.4	40.28476	-0.000399269					
91.5	40.30473	-0.000396919					
91.6	40.3247	-0.000394512					
91.7	40.34468	-0.000392337					
91.8	40.36464	-0.000389969					
91.9	40.38463	-0.000387601					
92	40.40461	-0.000385333					
92.1	40.42461	-0.000382987					
92.2	40.44459	-0.000380752					
92.3	40.46456	-0.000378344					
92.4	40.48458	-0.000376059					
92.5	40.50458	-0.000373699					
92.6	40.52459	-0.000371464					
92.7	40.5446	-0.000369109					
92.8	40.56461	-0.000366863					
92.9	40.58463	-0.000364527					
93	40.60465	-0.000362163					
93.1	40.6247	-0.000359891					
93.2	40.6447	-0.000357584					
93.3	40.6647	-0.000355289					
93.4	40.68472	-0.000352908					
93.5	40.70471	-0.000350576					
93.6	40.72471	-0.000348362					
93.7	40.74471	-0.000345969					
93.8	40.76471	-0.00034363					
93.9	40.78469	-0.000341295					
94	40.80464	-0.00033901					
94.1	40.82463	-0.000336571					
94.2	40.84459	-0.000334185					
94.3	40.86459	-0.000331858					
94.4	40.88457	-0.000329453					
94.5	40.90454	-0.000327069					
94.6	40.92449	-0.000324727					
94.7	40.94445	-0.00032242					
94.8	40.96439	-0.000319923					
94.9	40.98435	-0.000317592					
95	41.00431	-0.000315205					
95.1	41.02425	-0.000312903					
95.2	41.04419	-0.000310476					
95.3	41.06414	-0.000308088					
95.4	41.0841	-0.00030581					
95.5	41.10406	-0.000303403					
95.6	41.12402	-0.000301082					
95.7	41.14398	-0.000298698					
95.8	41.16393	-0.000296531					
95.9	41.18388	-0.000294225					
96	41.20382	-0.000291787					
96.1	41.22377	-0.000289542					
96.2	41.24374	-0.000287227					
96.3	41.26374	-0.000284896					
96.4	41.2837	-0.000282566					
96.5	41.3037	-0.00028028					
96.6	41.32367	-0.000277862					
96.7	41.34368	-0.000275472					
96.8	41.36369	-0.000273075					
96.9	41.38372	-0.0002707					
97	41.40371	-0.000268328					
97.1	41.4237	-0.000265824					
97.2	41.44372	-0.000263494					
97.3	41.46374	-0.000261126					
97.4	41.48377	-0.000258705					
97.5	41.50379	-0.000256235					
97.6	41.52382	-0.000253871					
97.7	41.54386	-0.000251534					
97.8	41.5639	-0.000248904					
97.9	41.58393	-0.000246614					
98	41.60398	-0.000244136					
98.1	41.62401	-0.000241782					
98.2	41.64407	-0.000239272					
98.3	41.66409	-0.000236888					
98.4	41.6841	-0.000234457					
98.5	41.70414	-0.000232015					
98.6	41.72417	-0.000229582					
98.7	41.7442	-0.000227115					
98.8	41.7642	-0.000224715					
98.9	41.7842	-0.000222252					
99	41.80421	-0.000219788					
99.1	41.82422	-0.0002174					
99.2	41.84424	-0.000214988					
99.3	41.86423	-0.000212504					
99.4	41.88424	-0.000210014					
99.5	41.90426	-0.000207695					
99.6	41.92429	-0.000205293					
99.7	41.94429	-0.000202797					
99.8	41.9643	-0.000200391					
99.9	41.98432	-0.000198054					
100	42.00433	-0.000195572					
100.1	42.02436	-0.000193163					
100.2	42.04439	-0.000190768					
100.3	42.06441	-0.00018836					
100.4	42.08441	-0.00018588					
100.5	42.1044	-0.000183508					
100.6	42.12441	-0.000181115					
100.7	42.1444	-0.000178617					
100.8	42.1644	-0.000176166					
100.9	42.18441	-0.000173771					
101	42.20442	-0.000171364					
101.1	42.22442	-0.000168899					
101.2	42.24444	-0.000166498					
101.3	42.26446	-0.000164096					
101.4	42.28446	-0.000161738					
101.5	42.30446	-0.000159274					
101.6	42.32444	-0.000156841					
101.7	42.34442	-0.000154479					
101.8	42.36442	-0.000152135					
101.9	42.38442	-0.000149693					
102	42.40441	-0.000147339					
102.1	42.42441	-0.000145009					
102.2	42.44441	-0.000142649					
102.3	42.46442	-0.00014022					
102.4	42.48438	-0.00013784					
102.5	42.50439	-0.000135499					
102.6	42.52438	-0.000133154					
102.7	42.5444	-0.000130693					
102.8	42.56438	-0.000128371					
102.9	42.58438	-0.000126084					
103	42.60433	-0.000123607					
103.1	42.6243	-0.00012126					
103.2	42.64426	-0.000118889					
103.3	42.66423	-0.00011656					
103.4	42.6842	-0.000114165					
103.5	42.70417	-0.000111769					
103.6	42.72416	-0.000109421					
103.7	42.74412	-0.000107097					
103.8	42.76408	-0.000104756					
103.9	42.78404	-0.000102325					
104	42.80397	-9.99607E-05					
104.1	42.82392	-9.75808E-05					
104.2	42.84387	-9.51484E-05					
104.3	42.86383	-9.27287E-05					
104.4	42.88379	-9.0312E-05					
104.5	42.90374	-8.78142E-05					
104.6	42.92371	-8.54615E-05					
104.7	42.94367	-8.29674E-05					
104.8	42.96361	-8.05352E-05					
104.9	42.98358	-7.81585E-05					
105	43.00354	-7.56067E-05					
105.1	43.02353	-7.3233E-05					
105.2	43.0435	-7.07325E-05					
105.3	43.06348	-6.82821E-05					
105.4	43.08346	-6.59055E-05					
105.5	43.10344	-6.34477E-05					
105.6	43.12341	-6.09308E-05					
105.7	43.14337	-5.85773E-05					
105.8	43.16336	-5.61738E-05					
105.9	43.18333	-5.37101E-05					
106	43.20331	-5.13077E-05					
106.1	43.2233	-4.88236E-05					
106.2	43.2433	-4.65464E-05					
106.3	43.26327	-4.40735E-05					
106.4	43.28324	-4.1644E-05					
106.5	43.30325	-3.92891E-05					
106.6	43.32325	-3.68832E-05					
106.7	43.34325	-3.44162E-05					
106.8	43.36325	-3.20099E-05					
106.9	43.38328	-2.95145E-05					
107	43.40329	-2.70156E-05					
107.1	43.42333	-2.4534E-05					
107.2	43.44338	-2.19586E-05					
107.3	43.4634	-1.95144E-05					
107.4	43.4834	-1.69651E-05					
107.5	43.50341	-1.45203E-05					
107.6	43.52343	-1.19324E-05					
107.7	43.54348	-9.39811E-06					
107.8	43.56349	-6.97371E-06					
107.9	43.58352	-4.44388E-06					
108	43.60356	-1.86541E-06					
108.1	43.62361	6.26198E-07					
108.2	43.64364	3.11636E-06					
108.3	43.66368	5.68884E-06					
108.4	43.68373	8.19048E-06					
108.5	43.70377	1.07145E-05					
108.6	43.7238	1.31655E-05					
108.7	43.74382	1.56829E-05					
108.8	43.76384	1.83066E-05					
108.9	43.78387	2.08225E-05					
109	43.80387	2.33384E-05					
109.1	43.82389	2.58153E-05					
109.2	43.84388	2.84787E-05					
109.3	43.86389	3.09517E-05					
109.4	43.8839	3.34458E-05					
109.5	43.90394	3.59085E-05					
109.6	43.92396	3.85045E-05					
109.7	43.94396	4.10606E-05					
109.8	43.964	4.35243E-05					
109.9	43.98403	4.60306E-05					
110	44.00406	4.85465E-05					
110.1	44.02409	5.10645E-05					
110.2	44.0441	5.35277E-05					
110.3	44.06414	5.60908E-05					
110.4	44.08419	5.85714E-05					
110.5	44.10423	6.1068E-05					
110.6	44.12427	6.35452E-05					
110.7	44.1443	6.59942E-05					
110.8	44.16434	6.85655E-05					
110.9	44.18438	7.10382E-05					
111	44.20441	7.35792E-05					
111.1	44.22444	7.59587E-05					
111.2	44.24447	7.85742E-05					
111.3	44.26448	8.1024E-05					
111.4	44.28454	8.34488E-05					
111.5	44.30459	8.6024E-05					
111.6	44.32461	8.85268E-05					
111.7	44.34464	9.09998E-05					
111.8	44.36467	9.34117E-05					
111.9	44.38468	9.59672E-05					
112	44.40468	9.83419E-05					
112.1	44.4247	0.000100902					
112.2	44.44469	0.000103174					
112.3	44.46467	0.000105718					
112.4	44.48464	0.000108209					
112.5	44.50458	0.000110631					
112.6	44.52451	0.000113023					
112.7	44.54444	0.000115441					
112.8	44.56436	0.000118008					
112.9	44.58432	0.000120439					
113	44.60428	0.00012292					
113.1	44.62423	0.000125256					
113.2	44.64417	0.000127803					
113.3	44.66409	0.00013029					
113.4	44.68404	0.000132636					
113.5	44.70396	0.000135103					
113.6	44.72389	0.000137556					
113.7	44.74382	0.000140061					
113.8	44.76373	0.000142371					
113.9	44.78367	0.000144918					
114	44.80359	0.00014729					
114.1	44.82352	0.000149823					
114.2	44.84347	0.00015221					
114.3	44.86341	0.000154707					
114.4	44.88336	0.000157204					
114.5	44.90331	0.000159724					
114.6	44.92327	0.000162282					
114.7	44.94324	0.000164784					
114.8	44.96321	0.000167398					
114.9	44.98317	0.000169861					
115	45.0031	0.000172474					
115.1	45.02306	0.000174901					
115.2	45.04301	0.000177561					
115.3	45.063	0.000180033					
115.4	45.08296	0.000182519					
115.5	45.10292	0.000185144					
115.6	45.12289	0.000187545					
115.7	45.14285	0.000190111					
115.8	45.16282	0.000192574					
115.9	45.18281	0.000195136					
116	45.20278	0.000197552					
116.1	45.22278	0.00020007					
116.2	45.24275	0.000202486					
116.3	45.26276	0.000205025					
116.4	45.28276	0.000207489					
116.5	45.30279	0.000209985					
116.6	45.32281	0.000212502					
116.7	45.34284	0.000214818					
116.8	45.36289	0.000217418					
116.9	45.38294	0.000219933					
117	45.40297	0.000222475					
117.1	45.42301	0.000225073					
117.2	45.44302	0.000227535					
117.3	45.46307	0.000230109					
117.4	45.48311	0.000232691					
117.5	45.50316	0.000235253					
117.6	45.52318	0.000237784					
117.7	45.5432	0.000240345					
117.8	45.56322	0.000242865					
117.9	45.58324	0.000245459					
118	45.60326	0.000247993					
118.1	45.62328	0.000250515					
118.2	45.64335	0.000253106					
118.3	45.66339	0.000255671					
118.4	45.68342	0.000258165					
118.5	45.70345	0.000260727					
118.6	45.72346	0.000263296					
118.7	45.74347	0.000265765					
118.8	45.76348	0.00026851					
118.9	45.78347	0.000270895					
119	45.80346	0.000273487					
119.1	45.82345	0.000276026					
119.2	45.84344	0.000278611					
119.3	45.86344	0.000281044					
119.4	45.88341	0.00028368					
119.5	45.90338	0.000286187					
119.6	45.92335	0.000288675					
119.7	45.94334	0.000291282					
119.8	45.96332	0.000293706					
119.9	45.98331	0.000296282					
120	46.00327	0.000298785					
120.1	46.02323	0.000301356					
120.2	46.04318	0.000303758					
120.3	46.06311	0.00030631					
120.4	46.08303	0.000308886					
120.5	46.10295	0.000311327					
120.6	46.12287	0.000313878					
120.7	46.14281	0.000316275					
120.8	46.16272	0.000318919					
120.9	46.18265	0.00032139					
121	46.2026	0.000323891					
121.1	46.22254	0.000326332					
121.2	46.2425	0.000328934					
121.3	46.26246	0.00033152					
121.4	46.28241	0.000333945					
121.5	46.30238	0.000336569					
121.6	46.32234	0.00033906					
121.7	46.34232	0.000341577					
121.8	46.36229	0.000344078					
121.9	46.38228	0.00034658					
122	46.40225	0.000349034					
122.1	46.42226	0.000351604					
122.2	46.44225	0.000354036					
122.3	46.46223	0.00035657					
122.4	46.48222	0.000359097					
122.5	46.5022	0.000361604					
122.6	46.5222	0.000364059					
122.7	46.54223	0.000366565					
122.8	46.56223	0.000369065					
122.9	46.58225	0.000371551					
123	46.60226	0.000374106					
123.1	46.62224	0.000376537					
123.2	46.64225	0.000379118					
123.3	46.66221	0.000381678					
123.4	46.6822	0.000384055					
123.5	46.70219	0.000386637					
123.6	46.7222	0.000389238					
123.7	46.7422	0.000391716					
123.8	46.76219	0.000394201					
123.9	46.78219	0.000396725					
124	46.80219	0.000399271					
124.1	46.82219	0.000401884					
124.2	46.84219	0.000404358					
124.3	46.8622	0.000406887					
124.4	46.8822	0.00040956					
124.5	46.90222	0.000412156					
124.6	46.92223	0.000414712					
124.7	46.94224	0.000417251					
124.8	46.96223	0.000419948					
124.9	46.98223	0.000422526					
125	47.00224	0.000425203					
125.1	47.02225	0.000427745					
125.2	47.04226	0.000430374					
125.3	47.06227	0.000432991					
125.4	47.08228	0.000435538					
125.5	47.10231	0.000438124					
125.6	47.12231	0.000440721					
125.7	47.14231	0.000443278					
125.8	47.16232	0.000445764					
125.9	47.18233	0.000448362					
126	47.20231	0.000450856					
126.1	47.22229	0.000453395					
126.2	47.24224	0.000455881					
126.3	47.2622	0.000458396					
126.4	47.28218	0.000460973					
126.5	47.30213	0.000463576					
126.6	47.3221	0.000465982					
126.7	47.34208	0.000468598					
126.8	47.36205	0.000471295					
126.9	47.38204	0.000473806					
127	47.40203	0.000476469					
127.1	47.42202	0.000479036					
127.2	47.44201	0.000481719					
127.3	47.462	0.000484302					
127.4	47.48199	0.000486757					
127.5	47.502	0.000489488					
127.6	47.52199	0.000492099					
127.7	47.54198	0.000494603					
127.8	47.56196	0.000497243					
127.9	47.58195	0.000499827					
128	47.60194	0.000502417					
128.1	47.62196	0.000505089					
128.2	47.642	0.000507599					
128.3	47.66205	0.000510203					
128.4	47.68209	0.000512881					
128.5	47.70215	0.000515408					
128.6	47.7222	0.000517985					
128.7	47.74221	0.000520576					
128.8	47.76221	0.000523191					
128.9	47.78221	0.000525688					
129	47.80222	0.000528329					
129.1	47.82224	0.000530901					
129.2	47.84225	0.000533493					
129.3	47.86229	0.000536003					
129.4	47.88234	0.000538558					
129.5	47.90239	0.000541218					
129.6	47.92242	0.000543732					
129.7	47.94242	0.000546225					
129.8	47.96247	0.000548779					
129.9	47.98251	0.000551429					
130	48.00255	0.000553926					
130.1	48.0226	0.000556479					
130.2	48.04261	0.000558996					
130.3	48.06263	0.000561605					
130.4	48.08264	0.000564129					
130.5	48.10263	0.000566633					
130.6	48.12263	0.000569134					
130.7	48.14263	0.00057173					
130.8	48.16265	0.000574244					
130.9	48.1827	0.0005768					
131	48.20272	0.000579346					
131.1	48.22272	0.000581862					
131.2	48.24272	0.000584444					
131.3	48.26273	0.00058696					
131.4	48.28272	0.000589488					
131.5	48.3027	0.000592046					
131.6	48.3227	0.000594541					
131.7	48.34271	0.000597108					
131.8	48.36272	0.000599648					
131.9	48.38271	0.000602112					
132	48.40272	0.00060464					
132.1	48.42272	0.000607191					
132.2	48.44267	0.00060959					
132.3	48.46264	0.000612229					
132.4	48.48263	0.000614741					
132.5	48.50265	0.0006172					
132.6	48.52265	0.000619726					
132.7	48.54266	0.000622209					
132.8	48.56267	0.000624854					
132.9	48.58267	0.000627243					
133	48.60267	0.000629854					
133.1	48.62268	0.000632318					
133.2	48.64268	0.000634958					
133.3	48.6627	0.000637446					
133.4	48.68271	0.000639929					
133.5	48.70273	0.000642541					
133.6	48.72274	0.000644978					
133.7	48.74272	0.000647619					
133.8	48.76272	0.000650115					
133.9	48.78269	0.000652719					
134	48.80265	0.00065526					
134.1	48.82264	0.000657797					
134.2	48.84265	0.000660369					
134.3	48.86267	0.000663069					
134.4	48.88269	0.000665648					
134.5	48.90269	0.000668212					
134.6	48.92267	0.000670951					
134.7	48.94268	0.000673507					
134.8	48.96266	0.000676212					
134.9	48.98266	0.000678797					
135	49.00266	0.000681352					
135.1	49.02266	0.000683934					
135.2	49.04266	0.000686616					
135.3	49.06266	0.000689163					
135.4	49.08264	0.000691705					
135.5	49.10264	0.000694296					
135.6	49.12262	0.000696869					
135.7	49.14261	0.000699389					
135.8	49.16262	0.000701882					
135.9	49.18265	0.000704414					
136	49.2027	0.000707012					
136.1	49.22275	0.000709519					
136.2	49.24278	0.000712022					
136.3	49.26284	0.000714581					
136.4	49.2829	0.000717229					
136.5	49.30294	0.000719777					
136.6	49.32297	0.000722454					
136.7	49.34302	0.000725031					
136.8	49.36306	0.00072767					
136.9	49.3831	0.000730209					
137	49.40312	0.00073289					
137.1	49.42315	0.000735432					
137.2	49.44318	0.000738099					
137.3	49.46323	0.000740697					
137.4	49.48328	0.000743238					
137.5	49.50331	0.000745909					
137.6	49.52335	0.000748519					
137.7	49.5434	0.000751089					
137.8	49.56344	0.000753643					
137.9	49.58346	0.00075631					
138	49.60345	0.000758915					
138.1	49.62346	0.000761508					
138.2	49.64344	0.000764044					
138.3	49.66344	0.000766731					
138.4	49.68342	0.000769368					
138.5	49.70343	0.000771872					
138.6	49.72345	0.000774551					
138.7	49.74347	0.000777123					
138.8	49.76348	0.000779747					
138.9	49.7835	0.000782333					
139	49.80353	0.000784923					
139.1	49.82356	0.000787525					
139.2	49.84356	0.000790142					
139.3	49.86359	0.000792746					
139.4	49.88361	0.000795234					
139.5	49.90359	0.000797903					
139.6	49.9236	0.000800448					
139.7	49.94359	0.000803042					
139.8	49.96359	0.00080563					
139.9	49.98361	0.000808228					
140	50.00361	0.000810779					
140.1	50.02361	0.000813368					
140.2	50.04363	0.000816005					
140.3	50.06365	0.000818538					
140.4	50.08365	0.000821257					
140.5	50.10364	0.000823722					
140.6	50.1236	0.000826361					
140.7	50.14358	0.000829006					
140.8	50.16357	0.000831618					
140.9	50.18353	0.000834169					
141	50.20351	0.000836776					
141.1	50.22348	0.000839368					
141.2	50.24347	0.000841963					
141.3	50.26344	0.000844565					
141.4	50.28341	0.000847011					
141.5	50.30338	0.000849767					
141.6	50.32338	0.000852216					
141.7	50.34336	0.000854823					
141.8	50.36337	0.000857367					
141.9	50.38334	0.000860034					
142	50.40332	0.00086258					
142.1	50.42331	0.000865123					
142.2	50.44331	0.000867848					
142.3	50.46328	0.00087037					
142.4	50.48326	0.000873031					
142.5	50.50324	0.000875451					
142.6	50.52325	0.000878175					
142.7	50.54326	0.000880706					
142.8	50.56324	0.000883342					
142.9	50.58324	0.000885883					
143	50.60327	0.000888579					
143.1	50.62327	0.000891162					
143.2	50.64328	0.000893774					
143.3	50.66328	0.000896369					
143.4	50.6833	0.000898966					
143.5	50.70329	0.000901778					
143.6	50.7233	0.0009043					
143.7	50.74331	0.000907009					
143.8	50.76329	0.000909673					
143.9	50.7833	0.000912359					
144	50.80333	0.000915064					
144.1	50.82335	0.000917705					
144.2	50.84337	0.00092046					
144.3	50.86339	0.000923131					
144.4	50.88341	0.00092587					
144.5	50.90343	0.000928436					
144.6	50.92347	0.000931189					
144.7	50.94346	0.000933821					
144.8	50.96347	0.000936571					
144.9	50.98348	0.000939144					
145	51.0035	0.000941783					
145.1	51.0235	0.000944413					
145.2	51.04352	0.00094697					
145.3	51.06352	0.000949565					
145.4	51.08355	0.000952214					
145.5	51.10357	0.000954877					
145.6	51.12358	0.000957421					
145.7	51.1436	0.000960037					
145.8	51.16363	0.000962571					
145.9	51.18364	0.00096538					
146	51.20364	0.000967988					
146.1	51.22364	0.000970625					
146.2	51.24366	0.000973476					
146.3	51.26366	0.000976054					
146.4	51.2837	0.000978837					
146.5	51.30372	0.000981474					
146.6	51.32376	0.000984237					
146.7	51.34378	0.000986916					
146.8	51.36381	0.000989681					
146.9	51.38384	0.000992291					
147	51.40385	0.000994978					
147.1	51.42386	0.000997743					
147.2	51.4439	0.001000426					
147.3	51.4639	0.001003123					
147.4	51.48393	0.001005808					
147.5	51.50395	0.001008653					
147.6	51.52398	0.001011246					
147.7	51.54398	0.001014009					
147.8	51.56397	0.001016726					
147.9	51.58399	0.001019438					
148	51.604	0.001022159					
148.1	51.62403	0.001024749					
148.2	51.64402	0.001027603					
148.3	51.66404	0.00103022					
148.4	51.68404	0.001033009					
148.5	51.70405	0.001035562					
148.6	51.72408	0.001038353					
148.7	51.74411	0.001041037					
148.8	51.76415	0.001043694					
148.9	51.78419	0.0010464					
149	51.80423	0.001049074					
149.1	51.82427	0.001051854					
149.2	51.84428	0.001054432					
149.3	51.86428	0.001057086					
149.4	51.88432	0.001059818					
149.5	51.9043	0.001062602					
149.6	51.92431	0.001065166					
149.7	51.94433	0.001067905					
149.8	51.96435	0.001070582					
149.9	51.98436	0.001073341					
150	52.00434	0.001076011					
150.1	52.02431	0.001078611					
150.2	52.0443	0.0010813					
150.3	52.06429	0.001083968					
150.4	52.08426	0.001086759					
150.5	52.10426	0.001089249					
150.6	52.12421	0.001091989					
150.7	52.14414	0.001094616					
150.8	52.16411	0.001097293					
150.9	52.18406	0.001099876					
151	52.20401	0.001102481					
151.1	52.22396	0.00110525					
151.2	52.24392	0.001107804					
151.3	52.26389	0.001110476					
151.4	52.28385	0.001113036					
151.5	52.3038	0.001115814					
151.6	52.32375	0.001118273					
151.7	52.34368	0.001120971					
151.8	52.36362	0.001123625					
151.9	52.38358	0.001126258					
152	52.40354	0.001128986					
152.1	52.42353	0.001131477					
152.2	52.44352	0.001134232					
152.3	52.46352	0.001136863					
152.4	52.48349	0.001139528					
152.5	52.50345	0.001142096					
152.6	52.52345	0.001144797					
152.7	52.54344	0.001147522					
152.8	52.56344	0.001150139					
152.9	52.58342	0.001152801					
153	52.60341	0.001155471					
153.1	52.62342	0.001158309					
153.2	52.64344	0.001160935					
153.3	52.66346	0.001163709					
153.4	52.68346	0.001166398					
153.5	52.70348	0.001169191					
153.6	52.72353	0.0011719					
153.7	52.74357	0.001174584					
153.8	52.76363	0.00117736					
153.9	52.7837	0.001180044					
154	52.80375	0.001182756					
154.1	52.82382	0.001185399					
154.2	52.84389	0.001188212					
154.3	52.86395	0.001190851					
154.4	52.88402	0.001193542					
154.5	52.90411	0.001196176					
154.6	52.92419	0.001198852					
154.7	52.94424	0.001201629					
154.8	52.96429	0.001204179					
154.9	52.98437	0.00120691					
155	53.00443	0.001209499					
155.1	53.02447	0.001212314					
155.2	53.04453	0.001214938					
155.3	53.06457	0.001217706					
155.4	53.08459	0.001220493					
155.5	53.10467	0.001223237					
155.6	53.12468	0.001226072					
155.7	53.14472	0.001228767					
155.8	53.16473	0.00123161					
155.9	53.18475	0.001234361					
156	53.20476	0.001237202					
156.1	53.22478	0.001239838					
156.2	53.24478	0.001242712					
156.3	53.26478	0.001245521					
156.4	53.28476	0.001248277					
156.5	53.30473	0.001250983					
156.6	53.3247	0.001253846					
156.7	53.3447	0.001256628					
156.8	53.36471	0.001259345					
156.9	53.3847	0.00126218					
157	53.40466	0.001264957					
157.1	53.42462	0.001267783					
157.2	53.44457	0.001270472					
157.3	53.46455	0.001273287					
157.4	53.48451	0.001276132					
157.5	53.50446	0.001278805					
157.6	53.5244	0.001281678					
157.7	53.5444	0.001284391					
157.8	53.56438	0.001287225					
157.9	53.58435	0.00128998					
158	53.60432	0.001292792					
158.1	53.6243	0.001295482					
158.2	53.64427	0.001298336					
158.3	53.66426	0.001300996					
158.4	53.68422	0.001303746					
158.5	53.7042	0.001306497					
158.6	53.72417	0.001309276					
158.7	53.74413	0.001312059					
158.8	53.76407	0.001314714					
158.9	53.78404	0.00131752					
159	53.80401	0.00132017					
159.1	53.82398	0.001323037					
159.2	53.84396	0.001325647					
159.3	53.86398	0.001328448					
159.4	53.88394	0.001331244					
159.5	53.90394	0.001333991					
159.6	53.92395	0.001336664					
159.7	53.94393	0.001339363					
159.8	53.96388	0.001342148					
159.9	53.98386	0.001344742					
160	54.00385	0.0013475					
160.1	54.02386	0.001350098					
160.2	54.04383	0.001352842					
160.3	54.06381	0.001355507					
160.4	54.08379	0.001358169					
160.5	54.1038	0.001360831					
160.6	54.12382	0.001363578					
160.7	54.14382	0.001366237					
160.8	54.16384	0.001368774					
160.9	54.18386	0.001371601					
161	54.20387	0.001374143					
161.1	54.22389	0.001376935					
161.2	54.24391	0.001379454					
161.3	54.26394	0.00138213					
161.4	54.28395	0.001384763					
161.5	54.30398	0.0013874					
161.6	54.32398	0.001390126					
161.7	54.34398	0.00139264					
161.8	54.364	0.001395482					
161.9	54.38403	0.001397993					
162	54.40407	0.001400773					
162.1	54.4241	0.001403378					
162.2	54.44409	0.001406155					
162.3	54.46412	0.001408945					
162.4	54.48414	0.001411614					
162.5	54.50415	0.001414412					
162.6	54.52416	0.001417139					
162.7	54.54417	0.001419906					
162.8	54.56418	0.001422548					
162.9	54.58417	0.001425348					
163	54.60415	0.001427985					
163.1	54.62415	0.001430691					
163.2	54.64413	0.00143344					
163.3	54.66412	0.001436019					
163.4	54.6841	0.001438854					
163.5	54.70411	0.0014413					
163.6	54.72411	0.001444055					
163.7	54.74411	0.001446717					
163.8	54.76412	0.001449459					
163.9	54.78412	0.00145207					
164	54.80411	0.001454711					
164.1	54.82409	0.001457363					
164.2	54.84407	0.001460071					
164.3	54.86409	0.001462884					
164.4	54.88406	0.001465417					
164.5	54.90407	0.001468377					
164.6	54.92404	0.001471053					
164.7	54.94401	0.001473816					
164.8	54.964	0.001476559					
164.9	54.98398	0.001479454					
165	55.00397	0.001482143					
165.1	55.02395	0.001484964					
165.2	55.04395	0.001487747					
165.3	55.06393	0.001490434					
165.4	55.0839	0.001493344					
165.5	55.10388	0.001495984					
165.6	55.12385	0.001498847					
165.7	55.14383	0.001501524					
165.8	55.16382	0.001504417					
165.9	55.1838	0.001507108					
166	55.20378	0.001509924					
166.1	55.22376	0.001512706					
166.2	55.24375	0.001515507					
166.3	55.26373	0.001518332					
166.4	55.28373	0.00152094					
166.5	55.30372	0.001523848					
166.6	55.3237	0.001526605					
166.7	55.34369	0.001529327					
166.8	55.3637	0.001532063					
166.9	55.38369	0.001534873					
167	55.40368	0.001537631					
167.1	55.42369	0.001540348					
167.2	55.44371	0.0015431					
167.3	55.46369	0.001545834					
167.4	55.48368	0.001548643					
167.5	55.5037	0.001551304					
167.6	55.52371	0.001554045					
167.7	55.54372	0.001556788					
167.8	55.56373	0.001559556					
167.9	55.58373	0.001562309					
168	55.60373	0.001565026					
168.1	55.62374	0.001567784					
168.2	55.64373	0.001570511					
168.3	55.66373	0.001573275					
168.4	55.68371	0.001575878					
168.5	55.7037	0.001578677					
168.6	55.7237	0.001581404					
168.7	55.74369	0.001584066					
168.8	55.7637	0.00158671					
168.9	55.78368	0.00158943					
169	55.80366	0.001592078					
169.1	55.82366	0.001594794					
169.2	55.84364	0.00159745					
169.3	55.86362	0.001600163					
169.4	55.88364	0.001602874					
169.5	55.90363	0.001605401					
169.6	55.92361	0.001608124					
169.7	55.94361	0.001610839					
169.8	55.96357	0.001613504					
169.9	55.98354	0.00161611					
170	56.00352	0.001618852					
170.1	56.02351	0.001621491					
170.2	56.04348	0.001624195					
170.3	56.06348	0.001626919					
170.4	56.08345	0.001629513					
170.5	56.10345	0.001632293					
170.6	56.12345	0.001634874					
170.7	56.14345	0.001637543					
170.8	56.16344	0.001640211					
170.9	56.18342	0.001642935					
171	56.20341	0.001645609					
171.1	56.22341	0.001648317					
171.2	56.24342	0.001651119					
171.3	56.26341	0.001653778					
171.4	56.28342	0.001656599					
171.5	56.30341	0.001659298					
171.6	56.32342	0.001662063					
171.7	56.34342	0.001664866					
171.8	56.36343	0.001667679					
171.9	56.38347	0.001670359					
172	56.4035	0.001673084					
172.1	56.42352	0.001675915					
172.2	56.44354	0.001678599					
172.3	56.46359	0.001681414					
172.4	56.48365	0.001683995					
172.5	56.5037	0.001686846					
172.6	56.52373	0.001689529					
172.7	56.54375	0.001692178					
172.8	56.56377	0.001695005					
172.9	56.58383	0.001697674					
173	56.60388	0.001700444					
173.1	56.62394	0.001703163					
173.2	56.644	0.001705865					
173.3	56.66407	0.001708641					
173.4	56.68412	0.001711527					
173.5	56.7042	0.001714293					
173.6	56.72424	0.001717129					
173.7	56.74431	0.001720022					
173.8	56.76436	0.001722751					
173.9	56.78441	0.001725584					
174	56.80446	0.001728409					
174.1	56.82451	0.001731284					
174.2	56.84455	0.00173403					
174.3	56.86457	0.001736826					
174.4	56.88459	0.001739561					
174.5	56.90461	0.001742497					
174.6	56.92461	0.001745283					
174.7	56.94463	0.001748111					
174.8	56.96464	0.001750936					
174.9	56.98466	0.00175377					
175	57.00467	0.001756592					
175.1	57.02469	0.001759338					
175.2	57.04469	0.001762193					
175.3	57.06468	0.001765042					
175.4	57.08466	0.00176792					
175.5	57.10462	0.001770634					
175.6	57.12459	0.001773491					
175.7	57.14457	0.001776255					
175.8	57.16453	0.001779107					
175.9	57.18451	0.001781855					
176	57.20447	0.001784578					
176.1	57.22443	0.001787473					
176.2	57.24441	0.001790223					
176.3	57.26441	0.001792954					
176.4	57.2844	0.001795749					
176.5	57.30438	0.00179857					
176.6	57.32437	0.001801272					
176.7	57.34435	0.001804081					
176.8	57.36433	0.001806873					
176.9	57.38433	0.001809715					
177	57.40432	0.001812443					
177.1	57.42431	0.001815187					
177.2	57.4443	0.001817976					
177.3	57.46427	0.001820696					
177.4	57.48425	0.001823502					
177.5	57.50424	0.001826231					
177.6	57.52424	0.001829014					
177.7	57.54426	0.00183173					
177.8	57.56425	0.001834581					
177.9	57.58425	0.001837185					
178	57.60424	0.001839938					
178.1	57.62423	0.001842691					
178.2	57.64421	0.001845464					
178.3	57.66418	0.00184818					
178.4	57.68414	0.001850855					
178.5	57.70411	0.00185372					
178.6	57.7241	0.001856404					
178.7	57.74408	0.001859079					
178.8	57.76407	0.001861855					
178.9	57.78404	0.001864581					
179	57.804	0.00186734					
179.1	57.82395	0.00186996					
179.2	57.84389	0.001872769					
179.3	57.86386	0.001875459					
179.4	57.88382	0.001878209					
179.5	57.90379	0.001880948					
179.6	57.92377	0.001883638					
179.7	57.94372	0.001886436					
179.8	57.96369	0.00188906					
179.9	57.98368	0.001891873					
180	58.00364	0.001894566					
180.1	58.02362	0.00189743					
180.2	58.04363	0.001900161					
180.3	58.06363	0.001902989					
180.4	58.08363	0.001905752					
180.5	58.10362	0.001908634					
180.6	58.12362	0.001911469					
180.7	58.14363	0.001914231					
180.8	58.16361	0.001917103					
180.9	58.18361	0.001919819					
181	58.20362	0.001922737					
181.1	58.22362	0.001925459					
181.2	58.24366	0.001928294					
181.3	58.26366	0.001931103					
181.4	58.28365	0.00193379					
181.5	58.30366	0.001936628					
181.6	58.32365	0.001939321					
181.7	58.3436	0.001942123					
181.8	58.36359	0.001944815					
181.9	58.38356	0.001947645					
182	58.40354	0.001950334					
182.1	58.42355	0.001953177					
182.2	58.44352	0.001955823					
182.3	58.46349	0.00195871					
182.4	58.48346	0.001961599					
182.5	58.50345	0.001964364					
182.6	58.52342	0.001967199					
182.7	58.54341	0.001970022					
182.8	58.56337	0.001972917					
182.9	58.58336	0.00197575					
183	58.60332	0.00197855					
183.1	58.6233	0.001981349					
183.2	58.64328	0.001984283					
183.3	58.66328	0.00198708					
183.4	58.68328	0.001989853					
183.5	58.70327	0.001992741					
183.6	58.72327	0.001995508					
183.7	58.74327	0.001998396					
183.8	58.76328	0.002001233					
183.9	58.78326	0.002003964					
184	58.80326	0.002006865					
184.1	58.82326	0.002009639					
184.2	58.84324	0.002012417					
184.3	58.86322	0.002015288					
184.4	58.88322	0.002018165					
184.5	58.90319	0.002020884					
184.6	58.92317	0.002023755					
184.7	58.94315	0.002026515					
184.8	58.96313	0.002029343					
184.9	58.98314	0.002032111					
185	59.00313	0.002034923					
185.1	59.02315	0.002037812					
185.2	59.04316	0.002040458					
185.3	59.06316	0.00204329					
185.4	59.08313	0.002046036					
185.5	59.10311	0.002048907					
185.6	59.12311	0.002051554					
185.7	59.14311	0.002054427					
185.8	59.1631	0.002057179					
185.9	59.1831	0.002060069					
186	59.20311	0.002062833					
186.1	59.2231	0.002065456					
186.2	59.24309	0.002068381					
186.3	59.26309	0.002071106					
186.4	59.2831	0.002073916					
186.5	59.30309	0.002076568					
186.6	59.32311	0.002079488					
186.7	59.34311	0.002082172					
186.8	59.36313	0.002084956					
186.9	59.38312	0.002087652					
187	59.40309	0.002090393					
187.1	59.42308	0.002093189					
187.2	59.44306	0.002095815					
187.3	59.46303	0.002098608					
187.4	59.48302	0.002101363					
187.5	59.50301	0.002104129					
187.6	59.523	0.002106777					
187.7	59.543	0.002109603					
187.8	59.563	0.002112328					
187.9	59.58303	0.002115082					
188	59.60304	0.00211785					
188.1	59.62305	0.002120514					
188.2	59.64305	0.00212338					
188.3	59.66309	0.002126114					
188.4	59.68309	0.002128868					
188.5	59.7031	0.002131613					
188.6	59.72314	0.002134362					
188.7	59.74314	0.00213714					
188.8	59.76314	0.002139899					
188.9	59.78316	0.00214271					
189	59.80317	0.002145526					
189.1	59.8232	0.002148388					
189.2	59.84322	0.002151127					
189.3	59.86324	0.002154056					
189.4	59.88327	0.002156881					
189.5	59.90328	0.002159811					
189.6	59.9233	0.002162559					
189.7	59.94332	0.002165422					
189.8	59.96335	0.002168222					
189.9	59.9834	0.002170961					
190	60.00343	0.002173819					
190.1	60.02344	0.00217654					
190.2	60.04347	0.00217942					
190.3	60.0635	0.002182148					
190.4	60.08352	0.002184952					
190.5	60.10354	0.002187543					
190.6	60.12356	0.002190407					
190.7	60.14356	0.002193108					
190.8	60.16361	0.002195832					
190.9	60.18364	0.002198693					
191	60.20367	0.002201426					
191.1	60.22368	0.00220426					
191.2	60.24371	0.002206947					
191.3	60.26374	0.002209858					
191.4	60.28378	0.002212621					
191.5	60.30381	0.002215444					
191.6	60.32386	0.002218302					
191.7	60.34389	0.002221059					
191.8	60.36392	0.002223982					
191.9	60.38394	0.002226662					
192	60.40394	0.002229535					
192.1	60.42395	0.002232245					
192.2	60.44396	0.002235201					
192.3	60.46398	0.002237884					
192.4	60.48402	0.002240748					
192.5	60.50405	0.002243496					
192.6	60.52407	0.002246278					
192.7	60.54409	0.002249154					
192.8	60.56414	0.002251738					
192.9	60.58416	0.002254664					
193	60.60417	0.002257435					
193.1	60.62419	0.002260217					
193.2	60.6442	0.002262961					
193.3	60.66422	0.00226573					
193.4	60.68424	0.002268528					
193.5	60.70424	0.002271245					
193.6	60.72424	0.002274129					
193.7	60.74423	0.002276755					
193.8	60.76425	0.00227964					
193.9	60.78422	0.002282334					
194	60.80419	0.002285053					
194.1	60.8242	0.002287804					
194.2	60.84418	0.002290557					
194.3	60.86417	0.002293276					
194.4	60.88415	0.00229592					
194.5	60.9041	0.002298767					
194.6	60.92407	0.002301407					
194.7	60.94401	0.002304206					
194.8	60.96398	0.002306888					
194.9	60.98393	0.002309675					
195	61.00386	0.00231235					
195.1	61.0238	0.002315085					
195.2	61.04379	0.00231784					
195.3	61.06377	0.002320564					
195.4	61.08372	0.002323408					
195.5	61.10368	0.002325922					
195.6	61.12365	0.002328739					
195.7	61.14364	0.002331435					
195.8	61.16363	0.00233411					
195.9	61.18359	0.002336776					
196	61.20357	0.002339592					
196.1	61.22358	0.002342397					
196.2	61.24358	0.002344949					
196.3	61.26357	0.002347766					
196.4	61.28357	0.00235039					
196.5	61.30356	0.002353225					
196.6	61.32356	0.002355842					
196.7	61.34359	0.002358563					
196.8	61.36362	0.002361386					
196.9	61.38366	0.002364018					
197	61.40368	0.002366767					
197.1	61.42371	0.002369393					
197.2	61.44375	0.002372243					
197.3	61.46377	0.002374862					
197.4	61.4838	0.002377714					
197.5	61.50381	0.002380382					
197.6	61.52383	0.002383147					
197.7	61.54384	0.002385869					
197.8	61.56383	0.00238856					
197.9	61.58383	0.002391375					
198	61.60384	0.0023942					
198.1	61.62384	0.002397018					
198.2	61.64384	0.002399789					
198.3	61.66385	0.002402742					
198.4	61.68386	0.002405503					
198.5	61.70386	0.002408207					
198.6	61.72388	0.002411092					
198.7	61.74388	0.002413825					
198.8	61.76386	0.002416615					
198.9	61.78383	0.002419296					
199	61.80381	0.002422127					
199.1	61.82379	0.002424895					
199.2	61.84376	0.002427592					
199.3	61.86375	0.002430295					
199.4	61.88376	0.002432945					
199.5	61.90377	0.002435752					
199.6	61.92378	0.00243837					
199.7	61.94374	0.002441131					
199.8	61.9636	0.002443791					
199.9	61.98337	0.002446522					
