#EXPORTTYPE:DATA SINGLE						
#FILE:B&D.ngb-sla						
#FORMAT:NETZSCH5						
#FTYPE:ANSI						
#IDENTITY:D						
#DECIMAL:POINT						
#SEPARATOR:SEMICOLON						
#MTYPE:DIL						
#INSTRUMENT:NETZSCH DIL 402SE						
#PROJECT:1						
#DATE/TIME:10.12.2019 16:07						
#CORR. FILE:						
#TEMPCAL:TCALZERO.TMX						
#LABORATORY:1						
#OPERATOR:1						
#REMARK:						
#SAMPLE:D						
#SAMPLE LENGTH /mm:9.91						
#MATERIAL:Ã’¥…						
#MEASMODE:Standard Expansion						
#M.RANGE /¶Ãm:20000						
#CORR. CODE:010						
#RANGE:-110°„C/5.0(K/min)/200°„C						
#SEGMENT:S1/1						
#SEG. 1:-110°„C/5.0(K/min)/200°„C						
						
##Temp./°„C	Time/min	dL/Lo				
-100	2.14097	-6.33785E-05				
-99.9	2.16004	-6.28716E-05				
-99.8	2.17909	-6.19173E-05				
-99.7	2.19813	-6.12483E-05				
-99.6	2.21719	-6.03112E-05				
-99.5	2.23629	-5.97203E-05				
-99.4	2.25541	-5.87594E-05				
-99.3	2.27452	-5.78678E-05				
-99.2	2.29369	-5.7019E-05				
-99.1	2.3129	-5.63163E-05				
-99	2.33216	-5.5359E-05				
-98.9	2.35145	-5.45559E-05				
-98.8	2.37079	-5.37729E-05				
-98.7	2.39019	-5.28498E-05				
-98.6	2.40959	-5.1889E-05				
-98.5	2.42911	-5.10656E-05				
-98.4	2.44866	-5.0142E-05				
-98.3	2.4683	-4.89913E-05				
-98.2	2.48796	-4.84277E-05				
-98.1	2.50769	-4.7088E-05				
-98	2.52744	-4.63267E-05				
-97.9	2.54729	-4.54069E-05				
-97.8	2.56718	-4.45812E-05				
-97.7	2.58718	-4.33911E-05				
-97.6	2.60723	-4.24188E-05				
-97.5	2.62731	-4.14738E-05				
-97.4	2.64741	-4.04318E-05				
-97.3	2.66758	-3.94332E-05				
-97.2	2.68779	-3.8406E-05				
-97.1	2.70797	-3.74969E-05				
-97	2.72824	-3.63358E-05				
-96.9	2.74853	-3.53359E-05				
-96.8	2.76886	-3.42179E-05				
-96.7	2.78923	-3.31559E-05				
-96.6	2.80961	-3.21594E-05				
-96.5	2.83001	-3.10067E-05				
-96.4	2.85043	-2.99395E-05				
-96.3	2.87086	-2.88366E-05				
-96.2	2.89132	-2.79747E-05				
-96.1	2.9118	-2.66077E-05				
-96	2.93228	-2.5808E-05				
-95.9	2.95277	-2.44581E-05				
-95.8	2.97321	-2.37313E-05				
-95.7	2.99364	-2.1815E-05				
-95.6	3.01404	-2.11839E-05				
-95.5	3.03447	-2.01453E-05				
-95.4	3.05489	-1.88836E-05				
-95.3	3.07528	-1.77482E-05				
-95.2	3.09571	-1.66185E-05				
-95.1	3.11612	-1.5756E-05				
-95	3.13653	-1.41729E-05				
-94.9	3.15686	-1.33368E-05				
-94.8	3.1772	-1.21039E-05				
-94.7	3.19754	-1.10027E-05				
-94.6	3.21786	-1.00919E-05				
-94.5	3.23815	-8.57016E-06				
-94.4	3.25839	-7.58094E-06				
-94.3	3.27863	-6.31796E-06				
-94.2	3.29885	-5.12674E-06				
-94.1	3.31904	-3.86325E-06				
-94	3.33923	-2.71026E-06				
-93.9	3.3594	-1.52146E-06				
-93.8	3.37957	-3.15019E-07				
-93.7	3.39971	9.1957E-07				
-93.6	3.4199	2.09216E-06				
-93.5	3.44003	3.26007E-06				
-93.4	3.46019	4.54119E-06				
-93.3	3.48033	5.80732E-06				
-93.2	3.50044	7.18115E-06				
-93.1	3.52057	8.05144E-06				
-93	3.54069	9.66507E-06				
-92.9	3.56083	1.08028E-05				
-92.8	3.58095	1.19144E-05				
-92.7	3.60107	1.33557E-05				
-92.6	3.62119	1.44085E-05				
-92.5	3.64133	1.58048E-05				
-92.4	3.6615	1.69509E-05				
-92.3	3.68166	1.83231E-05				
-92.2	3.70183	1.93812E-05				
-92.1	3.72196	2.07642E-05				
-92	3.74213	2.1943E-05				
-91.9	3.76228	2.33067E-05				
-91.8	3.78247	2.45895E-05				
-91.7	3.80265	2.57314E-05				
-91.6	3.82285	2.71181E-05				
-91.5	3.843	2.83922E-05				
-91.4	3.86317	2.96389E-05				
-91.3	3.88333	3.08053E-05				
-91.2	3.90354	3.22132E-05				
-91.1	3.92371	3.34135E-05				
-91	3.94385	3.4844E-05				
-90.9	3.96402	3.59399E-05				
-90.8	3.98419	3.73277E-05				
-90.7	4.00437	3.86825E-05				
-90.6	4.02452	3.98775E-05				
-90.5	4.04468	4.12078E-05				
-90.4	4.06483	4.23322E-05				
-90.3	4.08496	4.3798E-05				
-90.2	4.1051	4.50495E-05				
-90.1	4.12523	4.64392E-05				
-90	4.14535	4.75964E-05				
-89.9	4.16546	4.90044E-05				
-89.8	4.18556	5.03064E-05				
-89.7	4.20566	5.17726E-05				
-89.6	4.22575	5.29684E-05				
-89.5	4.24584	5.42281E-05				
-89.4	4.26593	5.56378E-05				
-89.3	4.28601	5.65953E-05				
-89.2	4.30607	5.82613E-05				
-89.1	4.32613	5.95586E-05				
-89	4.34619	6.06173E-05				
-88.9	4.36624	6.19367E-05				
-88.8	4.38629	6.31574E-05				
-88.7	4.40631	6.45067E-05				
-88.6	4.42637	6.59936E-05				
-88.5	4.44638	6.72331E-05				
-88.4	4.46638	6.82257E-05				
-88.3	4.48639	6.97783E-05				
-88.2	4.50639	7.09615E-05				
-88.1	4.52639	7.23186E-05				
-88	4.54638	7.37947E-05				
-87.9	4.56637	7.48331E-05				
-87.8	4.58636	7.62226E-05				
-87.7	4.60635	7.74376E-05				
-87.6	4.62631	7.87531E-05				
-87.5	4.64625	8.00803E-05				
-87.4	4.66621	8.1285E-05				
-87.3	4.68615	8.25514E-05				
-87.2	4.70611	8.39072E-05				
-87.1	4.72605	0.000085159				
-87	4.74598	8.66375E-05				
-86.9	4.76592	8.77683E-05				
-86.8	4.78584	8.91766E-05				
-86.7	4.80578	9.04006E-05				
-86.6	4.82571	9.17239E-05				
-86.5	4.84563	9.29256E-05				
-86.4	4.86555	9.41546E-05				
-86.3	4.88545	9.54387E-05				
-86.2	4.90535	9.66554E-05				
-86.1	4.92526	9.80217E-05				
-86	4.94517	9.9185E-05				
-85.9	4.96504	0.000100436				
-85.8	4.98495	0.000101592				
-85.7	5.00482	0.000102995				
-85.6	5.02468	0.00010418				
-85.5	5.04457	0.00010557				
-85.4	5.06445	0.000106791				
-85.3	5.08431	0.000108085				
-85.2	5.10417	0.000109236				
-85.1	5.12404	0.000110484				
-85	5.14387	0.000111867				
-84.9	5.16373	0.000113107				
-84.8	5.18355	0.000114414				
-84.7	5.2034	0.000115531				
-84.6	5.22322	0.000117018				
-84.5	5.24302	0.000118138				
-84.4	5.26281	0.000119644				
-84.3	5.28263	0.000120661				
-84.2	5.30241	0.000122182				
-84.1	5.3222	0.000123269				
-84	5.34196	0.000124594				
-83.9	5.36172	0.000125879				
-83.8	5.3815	0.000127066				
-83.7	5.40127	0.000128577				
-83.6	5.42102	0.000129686				
-83.5	5.44078	0.000131174				
-83.4	5.46055	0.000132174				
-83.3	5.48031	0.000133788				
-83.2	5.50005	0.000134847				
-83.1	5.5198	0.000136298				
-83	5.53954	0.000137412				
-82.9	5.55931	0.000138812				
-82.8	5.57904	0.000139929				
-82.7	5.5988	0.000141314				
-82.6	5.61852	0.000142649				
-82.5	5.63825	0.000143831				
-82.4	5.65801	0.000145412				
-82.3	5.67775	0.000146531				
-82.2	5.69748	0.000147994				
-82.1	5.71724	0.000149217				
-82	5.73697	0.000150783				
-81.9	5.75671	0.00015192				
-81.8	5.77645	0.000153506				
-81.7	5.79618	0.000154765				
-81.6	5.81587	0.000155977				
-81.5	5.83562	0.00015768				
-81.4	5.85537	0.000158726				
-81.3	5.8751	0.000160204				
-81.2	5.89486	0.000161571				
-81.1	5.91462	0.000163007				
-81	5.93437	0.000164094				
-80.9	5.95412	0.000165705				
-80.8	5.97388	0.000167013				
-80.7	5.99364	0.00016845				
-80.6	6.01337	0.000169625				
-80.5	6.03311	0.000171039				
-80.4	6.05286	0.000172432				
-80.3	6.07262	0.000173808				
-80.2	6.09237	0.000175129				
-80.1	6.11211	0.000176524				
-80	6.13185	0.000177825				
-79.9	6.15161	0.000179358				
-79.8	6.17138	0.000180553				
-79.7	6.19113	0.000181861				
-79.6	6.2109	0.000183446				
-79.5	6.23067	0.000184614				
-79.4	6.25042	0.000186224				
-79.3	6.27016	0.000187174				
-79.2	6.28989	0.000188735				
-79.1	6.30958	0.00019019				
-79	6.32929	0.00019146				
-78.9	6.34899	0.000192768				
-78.8	6.3687	0.000194228				
-78.7	6.38839	0.000195472				
-78.6	6.40809	0.00019692				
-78.5	6.42779	0.000198073				
-78.4	6.44749	0.000199496				
-78.3	6.46719	0.000200971				
-78.2	6.4869	0.000202195				
-78.1	6.50659	0.000203567				
-78	6.52629	0.000204888				
-77.9	6.54599	0.000206476				
-77.8	6.5657	0.000207511				
-77.7	6.58538	0.000209091				
-77.6	6.60508	0.000210147				
-77.5	6.62476	0.000211875				
-77.4	6.64445	0.000213124				
-77.3	6.66413	0.000214403				
-77.2	6.68379	0.000215769				
-77.1	6.70346	0.000217101				
-77	6.72316	0.000218561				
-76.9	6.74284	0.000219727				
-76.8	6.76253	0.00022116				
-76.7	6.78223	0.000222383				
-76.6	6.80191	0.000224051				
-76.5	6.82161	0.000225081				
-76.4	6.84129	0.000226646				
-76.3	6.86097	0.000227807				
-76.2	6.88067	0.000229452				
-76.1	6.90034	0.000230639				
-76	6.92003	0.000231956				
-75.9	6.9397	0.000233394				
-75.8	6.95937	0.000234375				
-75.7	6.97902	0.000235944				
-75.6	6.99869	0.000237159				
-75.5	7.01837	0.000238837				
-75.4	7.03804	0.000239866				
-75.3	7.05773	0.000241452				
-75.2	7.07742	0.000242671				
-75.1	7.09713	0.000244112				
-75	7.11683	0.000245362				
-74.9	7.1365	0.000246857				
-74.8	7.1562	0.000248292				
-74.7	7.17591	0.000249492				
-74.6	7.1956	0.000250785				
-74.5	7.21529	0.000252417				
-74.4	7.23497	0.000253528				
-74.3	7.25469	0.000254935				
-74.2	7.27438	0.000256338				
-74.1	7.29409	0.000257551				
-74	7.31377	0.000259109				
-73.9	7.33349	0.000260266				
-73.8	7.35321	0.000261816				
-73.7	7.37293	0.000262974				
-73.6	7.39265	0.000264522				
-73.5	7.41236	0.00026577				
-73.4	7.43207	0.000267362				
-73.3	7.45178	0.000268481				
-73.2	7.47149	0.000269911				
-73.1	7.49121	0.000271386				
-73	7.51092	0.000272607				
-72.9	7.53063	0.00027402				
-72.8	7.55036	0.000275168				
-72.7	7.57006	0.000276727				
-72.6	7.58977	0.000277965				
-72.5	7.6095	0.000279458				
-72.4	7.62919	0.000280511				
-72.3	7.64889	0.000282208				
-72.2	7.66859	0.000283317				
-72.1	7.68831	0.000284845				
-72	7.70801	0.000285921				
-71.9	7.72774	0.000287509				
-71.8	7.74742	0.000288729				
-71.7	7.76714	0.00029016				
-71.6	7.78683	0.000291338				
-71.5	7.80655	0.000292732				
-71.4	7.82627	0.000294247				
-71.3	7.84595	0.000295403				
-71.2	7.86565	0.00029696				
-71.1	7.88534	0.000298149				
-71	7.90504	0.000299574				
-70.9	7.92473	0.000300759				
-70.8	7.94443	0.000302307				
-70.7	7.96413	0.000303447				
-70.6	7.98381	0.000304815				
-70.5	8.00349	0.000306178				
-70.4	8.02318	0.000307454				
-70.3	8.04291	0.000308812				
-70.2	8.06262	0.000310088				
-70.1	8.08233	0.00031162				
-70	8.102	0.000312739				
-69.9	8.1217	0.000314088				
-69.8	8.14138	0.00031542				
-69.7	8.16105	0.000316775				
-69.6	8.18072	0.000318082				
-69.5	8.20043	0.000319492				
-69.4	8.22011	0.000320927				
-69.3	8.23981	0.000322006				
-69.2	8.25953	0.000323282				
-69.1	8.27921	0.000324827				
-69	8.29895	0.000326066				
-68.9	8.31866	0.000327473				
-68.8	8.33837	0.000328774				
-68.7	8.35811	0.000330083				
-68.6	8.37784	0.000331342				
-68.5	8.3976	0.00033267				
-68.4	8.41736	0.000334087				
-68.3	8.43713	0.000335259				
-68.2	8.45687	0.000336705				
-68.1	8.47661	0.000337942				
-68	8.49637	0.000339528				
-67.9	8.51616	0.000340515				
-67.8	8.53596	0.000341976				
-67.7	8.55576	0.000343335				
-67.6	8.57556	0.000344492				
-67.5	8.59536	0.000345962				
-67.4	8.61515	0.000347232				
-67.3	8.63496	0.000348621				
-67.2	8.65473	0.000349867				
-67.1	8.67452	0.000351379				
-67	8.69434	0.000352389				
-66.9	8.71409	0.000354075				
-66.8	8.73391	0.000355115				
-66.7	8.75371	0.000356544				
-66.6	8.77351	0.000357952				
-66.5	8.79334	0.000359242				
-66.4	8.81313	0.000360679				
-66.3	8.83294	0.000361746				
-66.2	8.85275	0.000363211				
-66.1	8.87254	0.000364443				
-66	8.89234	0.000365943				
-65.9	8.91212	0.000366986				
-65.8	8.93192	0.00036857				
-65.7	8.95169	0.000369742				
-65.6	8.97148	0.000371104				
-65.5	8.9913	0.000372506				
-65.4	9.01109	0.000373737				
-65.3	9.0309	0.000375186				
-65.2	9.05069	0.000376253				
-65.1	9.07047	0.00037785				
-65	9.09024	0.000378982				
-64.9	9.11002	0.000380515				
-64.8	9.12981	0.000381682				
-64.7	9.14958	0.000383059				
-64.6	9.16936	0.000384422				
-64.5	9.18912	0.000385777				
-64.4	9.20889	0.000386952				
-64.3	9.22867	0.000388389				
-64.2	9.24841	0.00038971				
-64.1	9.26816	0.000390927				
-64	9.28793	0.000392389				
-63.9	9.30771	0.000393358				
-63.8	9.32751	0.000394976				
-63.7	9.34727	0.000396087				
-63.6	9.36707	0.00039745				
-63.5	9.38686	0.000398819				
-63.4	9.40666	0.000400122				
-63.3	9.42644	0.000401448				
-63.2	9.44621	0.000402602				
-63.1	9.46603	0.000404284				
-63	9.48587	0.000405228				
-62.9	9.50571	0.000406812				
-62.8	9.52555	0.000407987				
-62.7	9.54538	0.000409246				
-62.6	9.5652	0.000410656				
-62.5	9.58504	0.000412004				
-62.4	9.60488	0.000413304				
-62.3	9.62472	0.00041445				
-62.2	9.64457	0.00041592				
-62.1	9.66444	0.000417157				
-62	9.68427	0.000418568				
-61.9	9.70413	0.00041956				
-61.8	9.72396	0.000421371				
-61.7	9.74383	0.000422342				
-61.6	9.76369	0.000423764				
-61.5	9.78352	0.000425047				
-61.4	9.80336	0.000426291				
-61.3	9.82321	0.000427793				
-61.2	9.8431	0.000428841				
-61.1	9.86296	0.000430361				
-61	9.8828	0.000431527				
-60.9	9.90264	0.000432885				
-60.8	9.92247	0.000433986				
-60.7	9.94232	0.000435404				
-60.6	9.96216	0.0004367				
-60.5	9.98201	0.000437804				
-60.4	10.00183	0.000439362				
-60.3	10.02165	0.000440507				
-60.2	10.04149	0.000441782				
-60.1	10.06129	0.000443001				
-60	10.08111	0.000444408				
-59.9	10.1009	0.000445659				
-59.8	10.1207	0.000447038				
-59.7	10.1405	0.000448239				
-59.6	10.16027	0.00044957				
-59.5	10.18007	0.000450902				
-59.4	10.19988	0.000452009				
-59.3	10.21967	0.000453287				
-59.2	10.23945	0.000454442				
-59.1	10.25922	0.000456081				
-59	10.27899	0.00045697				
-58.9	10.29876	0.00045856				
-58.8	10.31856	0.00045969				
-58.7	10.33835	0.000461038				
-58.6	10.35813	0.000462233				
-58.5	10.37789	0.000463495				
-58.4	10.39767	0.000464739				
-58.3	10.41747	0.000465949				
-58.2	10.43726	0.000467274				
-58.1	10.45704	0.000468487				
-58	10.47682	0.000469821				
-57.9	10.49663	0.000471002				
-57.8	10.5165	0.000472336				
-57.7	10.53631	0.00047356				
-57.6	10.55613	0.000474869				
-57.5	10.57594	0.000476211				
-57.4	10.59575	0.000477407				
-57.3	10.61557	0.000478904				
-57.2	10.6354	0.000479796				
-57.1	10.65522	0.000481377				
-57	10.67503	0.000482502				
-56.9	10.69486	0.00048388				
-56.8	10.71469	0.000485094				
-56.7	10.73448	0.000486513				
-56.6	10.7543	0.000487698				
-56.5	10.77411	0.000488854				
-56.4	10.79393	0.000490397				
-56.3	10.81374	0.000491396				
-56.2	10.83355	0.000492969				
-56.1	10.85333	0.000494141				
-56	10.87315	0.000495482				
-55.9	10.89298	0.00049668				
-55.8	10.91277	0.000497861				
-55.7	10.93255	0.000499108				
-55.6	10.95237	0.000500485				
-55.5	10.97214	0.000501769				
-55.4	10.99194	0.000502891				
-55.3	11.01174	0.000504391				
-55.2	11.03153	0.000505436				
-55.1	11.0513	0.000507008				
-55	11.07112	0.000508025				
-54.9	11.09092	0.000509303				
-54.8	11.1107	0.000510507				
-54.7	11.13047	0.000511962				
-54.6	11.15028	0.000513175				
-54.5	11.17004	0.000514445				
-54.4	11.18981	0.00051589				
-54.3	11.20959	0.000516881				
-54.2	11.22937	0.000518433				
-54.1	11.24916	0.000519516				
-54	11.26896	0.000520865				
-53.9	11.28874	0.000522132				
-53.8	11.30851	0.000523489				
-53.7	11.32831	0.00052475				
-53.6	11.34807	0.000525926				
-53.5	11.36784	0.000527312				
-53.4	11.38764	0.000528379				
-53.3	11.40742	0.000529892				
-53.2	11.42718	0.000531015				
-53.1	11.44696	0.000532409				
-53	11.46677	0.000533662				
-52.9	11.48653	0.000534835				
-52.8	11.50632	0.000536097				
-52.7	11.52612	0.000537537				
-52.6	11.54593	0.000538939				
-52.5	11.56575	0.000540043				
-52.4	11.58558	0.000541386				
-52.3	11.6054	0.000542715				
-52.2	11.62522	0.000544045				
-52.1	11.64503	0.00054501				
-52	11.66484	0.000546569				
-51.9	11.68467	0.000547764				
-51.8	11.70449	0.000549061				
-51.7	11.72432	0.000550339				
-51.6	11.74413	0.000551508				
-51.5	11.76397	0.000552994				
-51.4	11.78381	0.000554259				
-51.3	11.80365	0.000555494				
-51.2	11.82353	0.000556686				
-51.1	11.84339	0.000558106				
-51	11.86323	0.000559302				
-50.9	11.88307	0.000560546				
-50.8	11.90291	0.000561938				
-50.7	11.92274	0.000563038				
-50.6	11.94257	0.000564503				
-50.5	11.96241	0.000565609				
-50.4	11.98224	0.000566921				
-50.3	12.00206	0.0005682				
-50.2	12.02188	0.000569519				
-50.1	12.0417	0.000570676				
-50	12.0615	0.000572227				
-49.9	12.0813	0.000573317				
-49.8	12.10112	0.000574672				
-49.7	12.12091	0.00057607				
-49.6	12.1407	0.000577248				
-49.5	12.16048	0.000578606				
-49.4	12.18026	0.000579849				
-49.3	12.20003	0.000581243				
-49.2	12.2198	0.000582484				
-49.1	12.23955	0.000583985				
-49	12.2593	0.000585081				
-48.9	12.27905	0.000586423				
-48.8	12.29879	0.000587927				
-48.7	12.31853	0.000589207				
-48.6	12.33827	0.000590434				
-48.5	12.35801	0.000591838				
-48.4	12.37776	0.000593071				
-48.3	12.39748	0.000594343				
-48.2	12.41719	0.000595845				
-48.1	12.43693	0.0005972				
-48	12.45666	0.00059841				
-47.9	12.47641	0.0005997				
-47.8	12.49614	0.00060106				
-47.7	12.51587	0.000602331				
-47.6	12.53564	0.000603681				
-47.5	12.55541	0.000605008				
-47.4	12.57518	0.000606305				
-47.3	12.59495	0.000607625				
-47.2	12.61473	0.000608889				
-47.1	12.6345	0.00061022				
-47	12.65429	0.000611547				
-46.9	12.6741	0.000612951				
-46.8	12.69392	0.000614099				
-46.7	12.71376	0.000615541				
-46.6	12.7336	0.000616752				
-46.5	12.75344	0.000618111				
-46.4	12.77329	0.000619605				
-46.3	12.79314	0.000620731				
-46.2	12.81301	0.00062236				
-46.1	12.8329	0.000623315				
-46	12.85278	0.000625023				
-45.9	12.87267	0.00062589				
-45.8	12.89257	0.000627384				
-45.7	12.91245	0.000628806				
-45.6	12.93233	0.000629976				
-45.5	12.95223	0.000631411				
-45.4	12.97211	0.000632735				
-45.3	12.99199	0.000633997				
-45.2	13.0119	0.000635258				
-45.1	13.03179	0.000636799				
-45	13.0517	0.00063802				
-44.9	13.07157	0.000639373				
-44.8	13.09145	0.000640679				
-44.7	13.11129	0.000641962				
-44.6	13.13115	0.000643216				
-44.5	13.15101	0.00064455				
-44.4	13.17088	0.000645881				
-44.3	13.19074	0.000647289				
-44.2	13.21055	0.000648503				
-44.1	13.23041	0.000649753				
-44	13.25026	0.000651242				
-43.9	13.27007	0.000652385				
-43.8	13.28989	0.000653605				
-43.7	13.3097	0.000655067				
-43.6	13.32952	0.000656282				
-43.5	13.34934	0.000657511				
-43.4	13.36913	0.000658918				
-43.3	13.38894	0.000660142				
-43.2	13.40875	0.000661531				
-43.1	13.42855	0.000662768				
-43	13.44836	0.000664018				
-42.9	13.46814	0.000665427				
-42.8	13.48795	0.000666736				
-42.7	13.50776	0.000668081				
-42.6	13.52758	0.000669402				
-42.5	13.54739	0.000670645				
-42.4	13.56719	0.000671938				
-42.3	13.58699	0.000673206				
-42.2	13.60679	0.00067445				
-42.1	13.62663	0.000675562				
-42	13.64645	0.000676985				
-41.9	13.66628	0.000678015				
-41.8	13.68612	0.000679534				
-41.7	13.70598	0.000680771				
-41.6	13.72582	0.000681979				
-41.5	13.74568	0.000683215				
-41.4	13.76553	0.000684565				
-41.3	13.78539	0.000686089				
-41.2	13.80524	0.000686977				
-41.1	13.82508	0.000688368				
-41	13.84492	0.000689545				
-40.9	13.86477	0.000690954				
-40.8	13.88467	0.000692062				
-40.7	13.90453	0.000693637				
-40.6	13.92439	0.000694593				
-40.5	13.94424	0.000695979				
-40.4	13.96411	0.00069734				
-40.3	13.98397	0.000698532				
-40.2	14.00385	0.000699895				
-40.1	14.02374	0.000701175				
-40	14.04362	0.000702473				
-39.9	14.06349	0.000703696				
-39.8	14.08337	0.000704945				
-39.7	14.10326	0.00070628				
-39.6	14.12313	0.000707424				
-39.5	14.14301	0.000708866				
-39.4	14.1629	0.000709925				
-39.3	14.18277	0.000711477				
-39.2	14.20265	0.000712531				
-39.1	14.22254	0.000713819				
-39	14.24242	0.000715241				
-38.9	14.2623	0.000716406				
-38.8	14.28217	0.000717763				
-38.7	14.30204	0.000718988				
-38.6	14.32191	0.000720188				
-38.5	14.34176	0.000721467				
-38.4	14.36164	0.000722838				
-38.3	14.38152	0.000723972				
-38.2	14.4014	0.00072552				
-38.1	14.42126	0.00072675				
-38	14.44113	0.00072818				
-37.9	14.46098	0.000729293				
-37.8	14.48083	0.000730851				
-37.7	14.5007	0.000732027				
-37.6	14.52055	0.000733526				
-37.5	14.54043	0.000734772				
-37.4	14.56029	0.000735999				
-37.3	14.58016	0.000737639				
-37.2	14.60004	0.000738663				
-37.1	14.6199	0.000740102				
-37	14.63978	0.000741528				
-36.9	14.65966	0.000742692				
-36.8	14.67955	0.000744099				
-36.7	14.69946	0.000745312				
-36.6	14.71935	0.000746775				
-36.5	14.73925	0.000747925				
-36.4	14.75917	0.000749355				
-36.3	14.77906	0.000750589				
-36.2	14.79893	0.000752126				
-36.1	14.8188	0.000753441				
-36	14.83869	0.000754715				
-35.9	14.85859	0.000755938				
-35.8	14.87848	0.000757372				
-35.7	14.89835	0.000758797				
-35.6	14.91822	0.000760048				
-35.5	14.93811	0.000761428				
-35.4	14.95799	0.000762696				
-35.3	14.97787	0.000764138				
-35.2	14.99776	0.000765337				
-35.1	15.01765	0.000766871				
-35	15.03753	0.000768198				
-34.9	15.05741	0.000769424				
-34.8	15.07731	0.000770981				
-34.7	15.09717	0.000772047				
-34.6	15.11704	0.000773577				
-34.5	15.1369	0.000774853				
-34.4	15.15679	0.00077621				
-34.3	15.17666	0.000777276				
-34.2	15.19652	0.000778879				
-34.1	15.21645	0.00078014				
-34	15.23634	0.000781371				
-33.9	15.25622	0.000782847				
-33.8	15.27606	0.00078421				
-33.7	15.29595	0.000785625				
-33.6	15.31586	0.000786619				
-33.5	15.33576	0.000788231				
-33.4	15.35561	0.000789485				
-33.3	15.3755	0.000790833				
-33.2	15.39539	0.000792112				
-33.1	15.41525	0.000793605				
-33	15.43514	0.000794857				
-32.9	15.45503	0.000796011				
-32.8	15.47491	0.000797539				
-32.7	15.49478	0.000798604				
-32.6	15.51468	0.00080013				
-32.5	15.53456	0.000801387				
-32.4	15.55446	0.000802711				
-32.3	15.57433	0.000804172				
-32.2	15.5942	0.000805435				
-32.1	15.6141	0.000806746				
-32	15.63398	0.000808121				
-31.9	15.65391	0.000809417				
-31.8	15.6738	0.000810737				
-31.7	15.69372	0.000812195				
-31.6	15.71361	0.000813521				
-31.5	15.73352	0.000814868				
-31.4	15.75344	0.000816205				
-31.3	15.77336	0.000817549				
-31.2	15.79324	0.000818898				
-31.1	15.81313	0.000820126				
-31	15.83304	0.000821362				
-30.9	15.85292	0.000822695				
-30.8	15.8728	0.000824207				
-30.7	15.8927	0.000825479				
-30.6	15.9126	0.000826872				
-30.5	15.93249	0.000828247				
-30.4	15.95236	0.000829631				
-30.3	15.97224	0.000830814				
-30.2	15.99215	0.00083224				
-30.1	16.01207	0.000833592				
-30	16.03197	0.000834849				
-29.9	16.05188	0.000836368				
-29.8	16.07175	0.000837524				
-29.7	16.09166	0.000839086				
-29.6	16.11156	0.000840058				
-29.5	16.13148	0.000841774				
-29.4	16.15139	0.000842739				
-29.3	16.17129	0.00084405				
-29.2	16.1912	0.000845607				
-29.1	16.21112	0.000846944				
-29	16.23106	0.000848194				
-28.9	16.251	0.000849577				
-28.8	16.27091	0.000851034				
-28.7	16.29085	0.000852258				
-28.6	16.31082	0.000853605				
-28.5	16.33077	0.000854917				
-28.4	16.35073	0.000856353				
-28.3	16.37072	0.000857812				
-28.2	16.39069	0.000858864				
-28.1	16.41065	0.00086034				
-28	16.43061	0.000861506				
-27.9	16.45058	0.000862933				
-27.8	16.47054	0.000864369				
-27.7	16.49053	0.000865564				
-27.6	16.51048	0.000867025				
-27.5	16.53043	0.000868426				
-27.4	16.55036	0.00086962				
-27.3	16.57033	0.000870842				
-27.2	16.59031	0.000872483				
-27.1	16.61028	0.000873751				
-27	16.63026	0.000874931				
-26.9	16.65024	0.000876151				
-26.8	16.67019	0.000877656				
-26.7	16.69017	0.000878935				
-26.6	16.71015	0.000880369				
-26.5	16.73008	0.000881583				
-26.4	16.75002	0.000882992				
-26.3	16.76998	0.000884256				
-26.2	16.78993	0.00088546				
-26.1	16.8099	0.000886964				
-26	16.82986	0.000888307				
-25.9	16.84982	0.000889627				
-25.8	16.86975	0.000890932				
-25.7	16.88968	0.00089227				
-25.6	16.90963	0.000893664				
-25.5	16.92958	0.000894897				
-25.4	16.94951	0.000896318				
-25.3	16.96946	0.000897533				
-25.2	16.98936	0.000898898				
-25.1	17.00927	0.000900307				
-25	17.02918	0.000901535				
-24.9	17.0491	0.00090285				
-24.8	17.06903	0.000904115				
-24.7	17.08897	0.000905519				
-24.6	17.10889	0.000906687				
-24.5	17.12882	0.000908187				
-24.4	17.14876	0.000909273				
-24.3	17.16868	0.000910699				
-24.2	17.18859	0.000911885				
-24.1	17.20848	0.000913316				
-24	17.2284	0.000914606				
-23.9	17.24829	0.000916032				
-23.8	17.26822	0.000917084				
-23.7	17.28816	0.000918561				
-23.6	17.30811	0.000919875				
-23.5	17.32801	0.000921253				
-23.4	17.34795	0.000922461				
-23.3	17.36791	0.000923627				
-23.2	17.38786	0.000925061				
-23.1	17.40782	0.000926497				
-23	17.42779	0.000927623				
-22.9	17.44774	0.000928965				
-22.8	17.46768	0.000930312				
-22.7	17.48762	0.000931418				
-22.6	17.50755	0.000932901				
-22.5	17.52749	0.000934156				
-22.4	17.54743	0.000935382				
-22.3	17.56741	0.000936821				
-22.2	17.58736	0.000938076				
-22.1	17.60734	0.000939272				
-22	17.62731	0.000940681				
-21.9	17.64728	0.000942013				
-21.8	17.66725	0.000943078				
-21.7	17.68721	0.000944553				
-21.6	17.70718	0.000945676				
-21.5	17.72716	0.000947127				
-21.4	17.74714	0.00094847				
-21.3	17.76714	0.000949534				
-21.2	17.78715	0.000950877				
-21.1	17.80712	0.000952207				
-21	17.82713	0.000953466				
-20.9	17.84713	0.000954614				
-20.8	17.86713	0.000956163				
-20.7	17.88712	0.000957221				
-20.6	17.90712	0.000958658				
-20.5	17.92715	0.000959837				
-20.4	17.94716	0.000961258				
-20.3	17.96718	0.000962537				
-20.2	17.98716	0.000963547				
-20.1	18.00717	0.000964988				
-20	18.02718	0.000966252				
-19.9	18.04717	0.00096744				
-19.8	18.06716	0.000968967				
-19.7	18.08714	0.000970145				
-19.6	18.10712	0.000971363				
-19.5	18.12712	0.000972768				
-19.4	18.14709	0.000973955				
-19.3	18.16707	0.000975314				
-19.2	18.18701	0.000976551				
-19.1	18.20699	0.000977844				
-19	18.22696	0.000979146				
-18.9	18.24691	0.000980347				
-18.8	18.26685	0.000981541				
-18.7	18.28682	0.00098299				
-18.6	18.30676	0.000984336				
-18.5	18.3267	0.000985546				
-18.4	18.34662	0.000987029				
-18.3	18.36655	0.000988133				
-18.2	18.38647	0.000989622				
-18.1	18.4064	0.000990683				
-18	18.42634	0.000992016				
-17.9	18.44624	0.000993174				
-17.8	18.46617	0.000994605				
-17.7	18.48608	0.000995852				
-17.6	18.50598	0.000997088				
-17.5	18.52588	0.000998444				
-17.4	18.54576	0.000999767				
-17.3	18.56566	0.001001188				
-17.2	18.58557	0.001002062				
-17.1	18.60547	0.001003646				
-17	18.62534	0.001004943				
-16.9	18.64522	0.001006265				
-16.8	18.66512	0.001007535				
-16.7	18.68498	0.001008744				
-16.6	18.70485	0.001010014				
-16.5	18.72474	0.001011409				
-16.4	18.74465	0.001012821				
-16.3	18.76455	0.001013929				
-16.2	18.78446	0.001015495				
-16.1	18.80438	0.001016555				
-16	18.82429	0.001017942				
-15.9	18.84419	0.001018869				
-15.8	18.86411	0.001020397				
-15.7	18.88405	0.001021683				
-15.6	18.90401	0.001022905				
-15.5	18.92397	0.001024232				
-15.4	18.94393	0.001025381				
-15.3	18.96391	0.001026795				
-15.2	18.98389	0.001027911				
-15.1	19.00386	0.001029356				
-15	19.02388	0.001030364				
-14.9	19.0439	0.001032059				
-14.8	19.0639	0.00103289				
-14.7	19.08391	0.001034462				
-14.6	19.10395	0.001035582				
-14.5	19.12399	0.001036898				
-14.4	19.14401	0.00103818				
-14.3	19.16403	0.001039373				
-14.2	19.18407	0.001040726				
-14.1	19.20408	0.001041997				
-14	19.22408	0.001043334				
-13.9	19.2441	0.001044451				
-13.8	19.26415	0.001045899				
-13.7	19.28417	0.001047173				
-13.6	19.30418	0.00104846				
-13.5	19.3242	0.001049557				
-13.4	19.34421	0.001050976				
-13.3	19.3642	0.001052271				
-13.2	19.38421	0.001053475				
-13.1	19.4042	0.001054831				
-13	19.42417	0.00105586				
-12.9	19.44414	0.001057359				
-12.8	19.46412	0.001058565				
-12.7	19.48409	0.001059811				
-12.6	19.50406	0.001060948				
-12.5	19.52402	0.001062456				
-12.4	19.54398	0.001063663				
-12.3	19.56394	0.001064869				
-12.2	19.58391	0.001066121				
-12.1	19.60387	0.001067347				
-12	19.62384	0.001068803				
-11.9	19.64381	0.001069804				
-11.8	19.66378	0.001071115				
-11.7	19.68372	0.00107228				
-11.6	19.70365	0.001073936				
-11.5	19.72358	0.00107476				
-11.4	19.74352	0.001076252				
-11.3	19.76345	0.001077452				
-11.2	19.78337	0.001078879				
-11.1	19.80328	0.001080096				
-11	19.8232	0.001081258				
-10.9	19.84312	0.001082512				
-10.8	19.86305	0.001083723				
-10.7	19.88298	0.001085278				
-10.6	19.90291	0.001086227				
-10.5	19.92284	0.001087608				
-10.4	19.94277	0.001088842				
-10.3	19.96269	0.001090179				
-10.2	19.9826	0.001091497				
-10.1	20.00251	0.001092637				
-10	20.02245	0.001093874				
-9.9	20.04235	0.001095118				
-9.8	20.06226	0.001096423				
-9.7	20.08219	0.001097522				
-9.6	20.10212	0.001099038				
-9.5	20.12206	0.001100126				
-9.4	20.142	0.001101579				
-9.3	20.16192	0.001102529				
-9.2	20.18187	0.001103802				
-9.1	20.20181	0.00110517				
-9	20.22178	0.001106513				
-8.9	20.24173	0.00110777				
-8.8	20.26169	0.00110899				
-8.7	20.28163	0.00111018				
-8.6	20.30157	0.001111496				
-8.5	20.32155	0.001112674				
-8.4	20.34151	0.001113852				
-8.3	20.36148	0.001115379				
-8.2	20.38147	0.001116615				
-8.1	20.40146	0.001117761				
-8	20.42144	0.001118931				
-7.9	20.44141	0.001120378				
-7.8	20.4614	0.001121671				
-7.7	20.48138	0.001122952				
-7.6	20.50135	0.00112411				
-7.5	20.52132	0.001125552				
-7.4	20.54132	0.001126621				
-7.3	20.5613	0.001127967				
-7.2	20.5813	0.001129212				
-7.1	20.60129	0.001130277				
-7	20.62127	0.001131742				
-6.9	20.64125	0.001132794				
-6.8	20.66122	0.001134222				
-6.7	20.68122	0.001135307				
-6.6	20.7012	0.001136723				
-6.5	20.72117	0.001137808				
-6.4	20.74113	0.001139297				
-6.3	20.7611	0.001140302				
-6.2	20.78106	0.0011416				
-6.1	20.80102	0.001142919				
-6	20.82097	0.001144202				
-5.9	20.84093	0.001145403				
-5.8	20.8609	0.001146581				
-5.7	20.88086	0.00114811				
-5.6	20.90082	0.001149131				
-5.5	20.92077	0.001150401				
-5.4	20.94074	0.001151667				
-5.3	20.9607	0.001153106				
-5.2	20.98064	0.001154217				
-5.1	21.00057	0.001155413				
-5	21.02053	0.001156697				
-4.9	21.0405	0.001157718				
-4.8	21.06044	0.00115927				
-4.7	21.08041	0.001160318				
-4.6	21.10034	0.001161584				
-4.5	21.1203	0.001162827				
-4.4	21.14026	0.001164183				
-4.3	21.16022	0.00116543				
-4.2	21.18017	0.001166764				
-4.1	21.20013	0.00116773				
-4	21.22009	0.001169222				
-3.9	21.24005	0.001170334				
-3.8	21.26002	0.001171679				
-3.7	21.27999	0.001173039				
-3.6	21.29998	0.001174286				
-3.5	21.31996	0.001175546				
-3.4	21.33991	0.00117679				
-3.3	21.35987	0.00117815				
-3.2	21.37985	0.001179494				
-3.1	21.39983	0.001180859				
-3	21.41981	0.001182085				
-2.9	21.43976	0.001183565				
-2.8	21.45974	0.001184751				
-2.7	21.47971	0.00118607				
-2.6	21.4997	0.001187386				
-2.5	21.51971	0.001188578				
-2.4	21.53969	0.001190066				
-2.3	21.55967	0.001191187				
-2.2	21.57967	0.001192565				
-2.1	21.59963	0.001193692				
-2	21.61963	0.001195322				
-1.9	21.63961	0.001196203				
-1.8	21.65956	0.001197688				
-1.7	21.67955	0.001198902				
-1.6	21.69952	0.00120031				
-1.5	21.71947	0.001201713				
-1.4	21.73945	0.001202833				
-1.3	21.75944	0.001204219				
-1.2	21.7794	0.001205516				
-1.1	21.79937	0.00120693				
-1	21.81935	0.001208081				
-0.9	21.83935	0.001209546				
-0.8	21.85935	0.00121079				
-0.7	21.87933	0.001212043				
-0.6	21.89931	0.001213441				
-0.5	21.91928	0.001214547				
-0.4	21.93923	0.001215916				
-0.3	21.95921	0.001217156				
-0.2	21.97917	0.001218542				
-0.1	21.99912	0.001219652				
0	22.01907	0.001221344				
0.1	22.03901	0.001222264				
0.2	22.05897	0.001223749				
0.3	22.07893	0.001224967				
0.4	22.09887	0.001226327				
0.5	22.11882	0.001227669				
0.6	22.13878	0.001228868				
0.7	22.15875	0.001230274				
0.8	22.17872	0.001231443				
0.9	22.19867	0.001232974				
1	22.21863	0.001234088				
1.1	22.23855	0.001235566				
1.2	22.25849	0.001236784				
1.3	22.27847	0.001238306				
1.4	22.29844	0.001239468				
1.5	22.31843	0.001240844				
1.6	22.3384	0.001241772				
1.7	22.35838	0.001243234				
1.8	22.37835	0.001244643				
1.9	22.39833	0.001245734				
2	22.41833	0.001247267				
2.1	22.43835	0.001248339				
2.2	22.45836	0.001249955				
2.3	22.47838	0.001250949				
2.4	22.49838	0.001252391				
2.5	22.51839	0.00125364				
2.6	22.53841	0.001254989				
2.7	22.55844	0.001256243				
2.8	22.57845	0.001257556				
2.9	22.59848	0.001259056				
3	22.61852	0.001259989				
3.1	22.63857	0.001261398				
3.2	22.65864	0.001262612				
3.3	22.67869	0.001264				
3.4	22.6987	0.001265314				
3.5	22.71873	0.001266421				
3.6	22.73875	0.001267863				
3.7	22.75878	0.00126915				
3.8	22.77882	0.001270345				
3.9	22.79884	0.00127157				
4	22.81887	0.001272949				
4.1	22.83888	0.001274081				
4.2	22.85889	0.001275476				
4.3	22.8789	0.001276405				
4.4	22.89887	0.001277865				
4.5	22.91888	0.001279009				
4.6	22.93888	0.001280338				
4.7	22.95885	0.001281499				
4.8	22.97881	0.001282796				
4.9	22.99874	0.001283904				
5	23.01871	0.001285268				
5.1	23.03864	0.001286612				
5.2	23.05858	0.001287616				
5.3	23.07851	0.001288996				
5.4	23.09843	0.001290131				
5.5	23.11833	0.001291617				
5.6	23.13826	0.001292637				
5.7	23.15818	0.001293952				
5.8	23.17806	0.00129494				
5.9	23.19798	0.001296369				
6	23.21789	0.001297465				
6.1	23.2378	0.001298764				
6.2	23.25773	0.001300022				
6.3	23.27765	0.001301231				
6.4	23.29757	0.001302559				
6.5	23.31748	0.001303736				
6.6	23.33739	0.00130493				
6.7	23.35731	0.00130624				
6.8	23.37723	0.001307536				
6.9	23.39714	0.001308707				
7	23.41707	0.001309838				
7.1	23.43698	0.001311137				
7.2	23.45691	0.00131277				
7.3	23.47683	0.00131364				
7.4	23.49675	0.001315013				
7.5	23.51669	0.001316104				
7.6	23.53662	0.001317409				
7.7	23.55655	0.001318679				
7.8	23.5765	0.001319783				
7.9	23.59645	0.001321072				
8	23.61637	0.001322104				
8.1	23.63628	0.00132369				
8.2	23.65623	0.00132452				
8.3	23.67614	0.001326013				
8.4	23.69608	0.001327272				
8.5	23.71602	0.001328563				
8.6	23.73601	0.001329766				
8.7	23.75596	0.001331002				
8.8	23.77594	0.001332562				
8.9	23.79591	0.001333611				
9	23.8159	0.001334928				
9.1	23.8359	0.001336124				
9.2	23.85588	0.001337624				
9.3	23.87589	0.001338745				
9.4	23.89586	0.001340156				
9.5	23.91583	0.001341133				
9.6	23.9358	0.001342567				
9.7	23.95581	0.001343759				
9.8	23.9758	0.001345126				
9.9	23.99578	0.001346314				
10	24.01578	0.001347793				
10.1	24.03578	0.001348985				
10.2	24.05578	0.001350098				
10.3	24.07576	0.001351299				
10.4	24.09576	0.001352583				
10.5	24.11575	0.001354005				
10.6	24.13571	0.001355075				
10.7	24.15568	0.001356459				
10.8	24.17565	0.001357647				
10.9	24.19561	0.001358763				
11	24.21558	0.001360437				
11.1	24.23554	0.001361355				
11.2	24.25549	0.001362758				
11.3	24.27548	0.001363982				
11.4	24.29546	0.001365473				
11.5	24.31543	0.001366462				
11.6	24.33542	0.001367801				
11.7	24.3554	0.001369051				
11.8	24.37535	0.001370379				
11.9	24.39533	0.001371539				
12	24.41529	0.001372688				
12.1	24.43526	0.001374202				
12.2	24.45524	0.001375393				
12.3	24.47522	0.001376662				
12.4	24.49519	0.001377916				
12.5	24.51514	0.001379438				
12.6	24.53512	0.001380382				
12.7	24.55509	0.001381737				
12.8	24.57504	0.001382836				
12.9	24.59499	0.001384261				
13	24.61498	0.001385359				
13.1	24.63494	0.001386748				
13.2	24.65491	0.001387946				
13.3	24.67487	0.001389079				
13.4	24.69483	0.001390584				
13.5	24.71478	0.001391525				
13.6	24.73476	0.001392987				
13.7	24.75471	0.001394079				
13.8	24.77469	0.001395576				
13.9	24.79464	0.001396658				
14	24.81458	0.001398078				
14.1	24.83454	0.001399119				
14.2	24.85449	0.001400385				
14.3	24.87442	0.00140168				
14.4	24.89438	0.001402788				
14.5	24.91434	0.001404476				
14.6	24.93433	0.001405308				
14.7	24.95429	0.001406813				
14.8	24.97425	0.001407835				
14.9	24.99425	0.001409242				
15	25.01422	0.001410437				
15.1	25.03419	0.001411801				
15.2	25.0542	0.001412645				
15.3	25.07418	0.00141401				
15.4	25.09417	0.001415389				
15.5	25.11415	0.001416791				
15.6	25.13415	0.00141779				
15.7	25.15415	0.001418982				
15.8	25.17417	0.001420514				
15.9	25.19417	0.001421679				
16	25.21419	0.001422908				
16.1	25.23422	0.00142396				
16.2	25.25424	0.001425527				
16.3	25.27427	0.001426681				
16.4	25.29431	0.001427924				
16.5	25.31433	0.001429127				
16.6	25.33436	0.001430247				
16.7	25.35439	0.00143167				
16.8	25.37443	0.001432773				
16.9	25.39446	0.001434285				
17	25.41448	0.001435488				
17.1	25.43449	0.001436713				
17.2	25.45449	0.001438014				
17.3	25.47447	0.001439354				
17.4	25.49446	0.001440541				
17.5	25.51445	0.001441899				
17.6	25.53442	0.001443064				
17.7	25.5544	0.001444333				
17.8	25.57438	0.001445575				
17.9	25.59433	0.001446766				
18	25.61431	0.001448286				
18.1	25.63428	0.001449471				
18.2	25.65425	0.001450581				
18.3	25.67422	0.001451754				
18.4	25.69419	0.001453196				
18.5	25.71415	0.001454158				
18.6	25.73411	0.001455511				
18.7	25.75406	0.001456896				
18.8	25.774	0.001458413				
18.9	25.79395	0.001459478				
19	25.81392	0.001460413				
19.1	25.83388	0.00146206				
19.2	25.85386	0.001463023				
19.3	25.87384	0.001464373				
19.4	25.89382	0.001465549				
19.5	25.9138	0.001466994				
19.6	25.93378	0.00146817				
19.7	25.95376	0.001469436				
19.8	25.97375	0.001470485				
19.9	25.99374	0.001471853				
20	26.01373	0.001473				
20.1	26.03373	0.001474242				
20.2	26.05374	0.001475521				
20.3	26.07373	0.001476782				
20.4	26.09372	0.001478231				
20.5	26.11374	0.001479187				
20.6	26.13374	0.001480542				
20.7	26.15376	0.001481746				
20.8	26.17377	0.001483063				
20.9	26.19376	0.001484393				
21	26.21374	0.001485368				
21.1	26.23372	0.001486621				
21.2	26.25371	0.001487981				
21.3	26.2737	0.001489072				
21.4	26.29371	0.001490501				
21.5	26.31374	0.001491625				
21.6	26.33379	0.001492722				
21.7	26.35381	0.00149413				
21.8	26.37382	0.001495146				
21.9	26.39384	0.00149654				
22	26.41387	0.001497572				
22.1	26.43389	0.001499116				
22.2	26.45389	0.001500186				
22.3	26.47389	0.001501433				
22.4	26.4939	0.001502705				
22.5	26.51391	0.001503883				
22.6	26.53391	0.001505216				
22.7	26.55391	0.001506182				
22.8	26.5739	0.001507531				
22.9	26.59392	0.001508805				
23	26.61393	0.001509936				
23.1	26.63395	0.001511111				
23.2	26.65399	0.001512357				
23.3	26.674	0.00151359				
23.4	26.694	0.001514879				
23.5	26.714	0.001516138				
23.6	26.734	0.001517103				
23.7	26.754	0.001518538				
23.8	26.77402	0.001519728				
23.9	26.79402	0.001520927				
24	26.81398	0.00152214				
24.1	26.83396	0.00152336				
24.2	26.85394	0.00152446				
24.3	26.87393	0.001525715				
24.4	26.89391	0.001526888				
24.5	26.91388	0.001528372				
24.6	26.93383	0.001529687				
24.7	26.9538	0.001530789				
24.8	26.97375	0.00153179				
24.9	26.99372	0.001533029				
25	27.01368	0.001534511				
25.1	27.03364	0.001535516				
25.2	27.05362	0.001536917				
25.3	27.07357	0.001537893				
25.4	27.09355	0.001539231				
25.5	27.11348	0.001540248				
25.6	27.13342	0.001541746				
25.7	27.15336	0.001542767				
25.8	27.17331	0.001544158				
25.9	27.19325	0.00154534				
26	27.2132	0.001546267				
26.1	27.23321	0.001547764				
26.2	27.25319	0.001548983				
26.3	27.27317	0.001550299				
26.4	27.29317	0.001551097				
26.5	27.31316	0.001552588				
26.6	27.33316	0.001553819				
26.7	27.35316	0.001555087				
26.8	27.37317	0.001556238				
26.9	27.39319	0.001557369				
27	27.4132	0.001558859				
27.1	27.43322	0.001559853				
27.2	27.4532	0.001560974				
27.3	27.47322	0.00156225				
27.4	27.49321	0.001563393				
27.5	27.51323	0.00156474				
27.6	27.53326	0.00156612				
27.7	27.55326	0.001567094				
27.8	27.57329	0.001568438				
27.9	27.59327	0.001569533				
28	27.61329	0.001570756				
28.1	27.6333	0.001571939				
28.2	27.65332	0.001572874				
28.3	27.67332	0.001574678				
28.4	27.69333	0.001575495				
28.5	27.71332	0.001576849				
28.6	27.73333	0.001577914				
28.7	27.75334	0.001579365				
28.8	27.77335	0.001580433				
28.9	27.79334	0.001581759				
29	27.81336	0.001582854				
29.1	27.83335	0.001583976				
29.2	27.85335	0.001585473				
29.3	27.87337	0.001586341				
29.4	27.89337	0.001587591				
29.5	27.91339	0.001588826				
29.6	27.93338	0.001590313				
29.7	27.9534	0.001591161				
29.8	27.9734	0.001592633				
29.9	27.9934	0.001593575				
30	28.01341	0.001595152				
30.1	28.03341	0.001595966				
30.2	28.05338	0.00159727				
30.3	28.07336	0.00159856				
30.4	28.09333	0.001599483				
30.5	28.11329	0.001600943				
30.6	28.13329	0.001601901				
30.7	28.15328	0.001603283				
30.8	28.17326	0.00160442				
30.9	28.19324	0.001605515				
31	28.21322	0.001606836				
31.1	28.23318	0.001608153				
31.2	28.25318	0.001609453				
31.3	28.27316	0.001610543				
31.4	28.29313	0.001611773				
31.5	28.31312	0.001612644				
31.6	28.33309	0.001614391				
31.7	28.35308	0.001615122				
31.8	28.37306	0.001616607				
31.9	28.39304	0.001617567				
32	28.41299	0.001619022				
32.1	28.43297	0.001620017				
32.2	28.45296	0.00162114				
32.3	28.47295	0.001622407				
32.4	28.49294	0.001623562				
32.5	28.51295	0.001624835				
32.6	28.53295	0.001625884				
32.7	28.55293	0.001627336				
32.8	28.57293	0.001628302				
32.9	28.59294	0.001629783				
33	28.61295	0.001630429				
33.1	28.63293	0.00163178				
33.2	28.65293	0.001632734				
33.3	28.67295	0.001634211				
33.4	28.69298	0.001635157				
33.5	28.71298	0.001636253				
33.6	28.73296	0.001637667				
33.7	28.75296	0.001638827				
33.8	28.77297	0.001640098				
33.9	28.79294	0.001640891				
34	28.81295	0.001642414				
34.1	28.83296	0.001643492				
34.2	28.85297	0.001644847				
34.3	28.87296	0.001645708				
34.4	28.89296	0.001646961				
34.5	28.91297	0.001648281				
34.6	28.93297	0.001649391				
34.7	28.95299	0.00165044				
34.8	28.97302	0.001651508				
34.9	28.99304	0.001653012				
35	29.01306	0.001654032				
35.1	29.03311	0.001655286				
35.2	29.05313	0.001656153				
35.3	29.07316	0.001657719				
35.4	29.09314	0.001658677				
35.5	29.11314	0.001659882				
35.6	29.13315	0.001661196				
35.7	29.15319	0.001662312				
35.8	29.1732	0.001663516				
35.9	29.19322	0.001664681				
36	29.21328	0.001665843				
36.1	29.23329	0.001666852				
36.2	29.25329	0.001668368				
36.3	29.27331	0.001669223				
36.4	29.29333	0.001670592				
36.5	29.31331	0.001671673				
36.6	29.33328	0.001672911				
36.7	29.35324	0.001673956				
36.8	29.37319	0.001675126				
36.9	29.39313	0.001676525				
37	29.41308	0.001677443				
37.1	29.43302	0.001678783				
37.2	29.45297	0.00167976				
37.3	29.47291	0.001681215				
37.4	29.49287	0.001682077				
37.5	29.51283	0.001683475				
37.6	29.53277	0.001684585				
37.7	29.55272	0.001685627				
37.8	29.57265	0.001686988				
37.9	29.59262	0.001688193				
38	29.61257	0.00168921				
38.1	29.63252	0.001690314				
38.2	29.6525	0.001691722				
38.3	29.67246	0.001692786				
38.4	29.69244	0.001693956				
38.5	29.71243	0.001695098				
38.6	29.73243	0.001696385				
38.7	29.75242	0.001697409				
38.8	29.77241	0.001698708				
38.9	29.79241	0.00169982				
39	29.8124	0.001701142				
39.1	29.83242	0.001702157				
39.2	29.85241	0.00170327				
39.3	29.87239	0.001704444				
39.4	29.89238	0.001705576				
39.5	29.91236	0.00170696				
39.6	29.93235	0.001707994				
39.7	29.95235	0.001709061				
39.8	29.97235	0.001710189				
39.9	29.99233	0.001711559				
40	30.0123	0.001712705				
40.1	30.03227	0.001713923				
40.2	30.05223	0.00171502				
40.3	30.07219	0.001716239				
40.4	30.09215	0.001717349				
40.5	30.11211	0.001718634				
40.6	30.13206	0.00171969				
40.7	30.15203	0.001720861				
40.8	30.17199	0.001722079				
40.9	30.19195	0.001723202				
41	30.21191	0.001724617				
41.1	30.23187	0.001725326				
41.2	30.25183	0.00172686				
41.3	30.27178	0.001727734				
41.4	30.29173	0.001728985				
41.5	30.3117	0.001730139				
41.6	30.33168	0.001731488				
41.7	30.35163	0.001732515				
41.8	30.37159	0.001733709				
41.9	30.39154	0.001734863				
42	30.4115	0.00173591				
42.1	30.43147	0.001737303				
42.2	30.45144	0.001738223				
42.3	30.47141	0.001739424				
42.4	30.49138	0.001740529				
42.5	30.51134	0.001741839				
42.6	30.5313	0.001743065				
42.7	30.55126	0.001743907				
42.8	30.57124	0.001745263				
42.9	30.5912	0.001746391				
43	30.61118	0.001747626				
43.1	30.63115	0.001748501				
43.2	30.6511	0.001750121				
43.3	30.67105	0.001750942				
43.4	30.69102	0.001752495				
43.5	30.71099	0.001753125				
43.6	30.73095	0.001754689				
43.7	30.75091	0.001755796				
43.8	30.77087	0.001756839				
43.9	30.79085	0.001757789				
44	30.81082	0.001759034				
44.1	30.83081	0.001760361				
44.2	30.85078	0.001761448				
44.3	30.87074	0.001762613				
44.4	30.89071	0.001763468				
44.5	30.91068	0.001765088				
44.6	30.93068	0.001765963				
44.7	30.95066	0.001767191				
44.8	30.97065	0.001768152				
44.9	30.9906	0.001769764				
45	31.01061	0.00177058				
45.1	31.03058	0.001771807				
45.2	31.05056	0.001773028				
45.3	31.07054	0.001774077				
45.4	31.09054	0.001775285				
45.5	31.11054	0.001776387				
45.6	31.13056	0.001777534				
45.7	31.15055	0.001778523				
45.8	31.17057	0.001780069				
45.9	31.19059	0.00178108				
46	31.21062	0.001782086				
46.1	31.23064	0.001783279				
46.2	31.25066	0.001784536				
46.3	31.27069	0.001785934				
46.4	31.29076	0.001786833				
46.5	31.31078	0.001788198				
46.6	31.33083	0.001789239				
46.7	31.35088	0.001790717				
46.8	31.3709	0.001791586				
46.9	31.39096	0.001792931				
47	31.411	0.001793899				
47.1	31.43101	0.001795212				
47.2	31.45104	0.001796296				
47.3	31.4711	0.001797634				
47.4	31.49115	0.001798738				
47.5	31.5112	0.001799949				
47.6	31.53123	0.001801089				
47.7	31.55126	0.001802111				
47.8	31.5713	0.001803514				
47.9	31.5913	0.001804494				
48	31.61131	0.001805942				
48.1	31.63129	0.001806937				
48.2	31.65129	0.001808216				
48.3	31.67128	0.001809258				
48.4	31.69126	0.001810421				
48.5	31.71121	0.001811713				
48.6	31.73118	0.001812735				
48.7	31.75114	0.001814195				
48.8	31.7711	0.001815059				
48.9	31.79105	0.001816452				
49	31.81098	0.001817655				
49.1	31.83094	0.00181896				
49.2	31.8509	0.001819766				
49.3	31.87084	0.001821167				
49.4	31.89077	0.00182226				
49.5	31.91071	0.001823532				
49.6	31.93063	0.001824556				
49.7	31.95058	0.001825532				
49.8	31.97051	0.001827098				
49.9	31.99044	0.001827948				
50	32.01038	0.001829389				
50.1	32.03033	0.001830309				
50.2	32.05027	0.001831575				
50.3	32.07022	0.001832693				
50.4	32.09014	0.001833984				
50.5	32.11007	0.00183508				
50.6	32.13003	0.001836276				
50.7	32.15	0.001837425				
50.8	32.16995	0.001838625				
50.9	32.1899	0.001839728				
51	32.20985	0.001840885				
51.1	32.22979	0.001842332				
51.2	32.24974	0.001843306				
51.3	32.26967	0.001844488				
51.4	32.28962	0.001845764				
51.5	32.30957	0.001846712				
51.6	32.32951	0.001847822				
51.7	32.34945	0.00184913				
51.8	32.3694	0.001850206				
51.9	32.38937	0.001851248				
52	32.40934	0.001852645				
52.1	32.42931	0.001853462				
52.2	32.44927	0.001854774				
52.3	32.46924	0.001855792				
52.4	32.48922	0.001856978				
52.5	32.50918	0.001858131				
52.6	32.52915	0.001859168				
52.7	32.54911	0.001860327				
52.8	32.56909	0.001861574				
52.9	32.58906	0.001862642				
53	32.60905	0.001863791				
53.1	32.62904	0.001864864				
53.2	32.64905	0.001866087				
53.3	32.66904	0.001867177				
53.4	32.68905	0.001868295				
53.5	32.70906	0.001869503				
53.6	32.72904	0.001870492				
53.7	32.74903	0.00187178				
53.8	32.76901	0.001872723				
53.9	32.78899	0.001874024				
54	32.80896	0.00187508				
54.1	32.82895	0.001876431				
54.2	32.84892	0.00187733				
54.3	32.86892	0.001878378				
54.4	32.88891	0.001879827				
54.5	32.90889	0.001880876				
54.6	32.92892	0.001881824				
54.7	32.94894	0.001882961				
54.8	32.96894	0.001884116				
54.9	32.98893	0.0018851				
55	33.00894	0.001886293				
55.1	33.02892	0.001887121				
55.2	33.04889	0.001888297				
55.3	33.06888	0.001889359				
55.4	33.08888	0.001890586				
55.5	33.10888	0.001891664				
55.6	33.12886	0.001892616				
55.7	33.14887	0.001893796				
55.8	33.16888	0.001894805				
55.9	33.18888	0.00189599				
56	33.20888	0.001896961				
56.1	33.22887	0.001898231				
56.2	33.24885	0.001899219				
56.3	33.26885	0.001900416				
56.4	33.28882	0.001901253				
56.5	33.30879	0.001902673				
56.6	33.32875	0.001903595				
56.7	33.34873	0.001904602				
56.8	33.3687	0.001905765				
56.9	33.38866	0.001906534				
57	33.40865	0.001907966				
57.1	33.42863	0.001908866				
57.2	33.44862	0.001909977				
57.3	33.46862	0.001910928				
57.4	33.48861	0.001912212				
57.5	33.50859	0.001913134				
57.6	33.52858	0.001914248				
57.7	33.54857	0.001915542				
57.8	33.56857	0.001916433				
57.9	33.58856	0.001917693				
58	33.60857	0.00191856				
58.1	33.62856	0.001919802				
58.2	33.64856	0.001920678				
58.3	33.66855	0.00192191				
58.4	33.68855	0.001922964				
58.5	33.70856	0.001924013				
58.6	33.72855	0.001924952				
58.7	33.74855	0.001926352				
58.8	33.76853	0.001927157				
58.9	33.78852	0.001928102				
59	33.80851	0.001929435				
59.1	33.82848	0.00193034				
59.2	33.84845	0.001931519				
59.3	33.86845	0.001932485				
59.4	33.88842	0.001933774				
59.5	33.90842	0.0019345				
59.6	33.9284	0.001935786				
59.7	33.94837	0.001936744				
59.8	33.96835	0.001937924				
59.9	33.98833	0.001938952				
60	34.0083	0.001940139				
60.1	34.02827	0.001941174				
60.2	34.04828	0.001942208				
60.3	34.06827	0.001943514				
60.4	34.08826	0.001944473				
60.5	34.10827	0.001945806				
60.6	34.12829	0.001946707				
60.7	34.14829	0.001947956				
60.8	34.1683	0.001948912				
60.9	34.1883	0.001949993				
61	34.20831	0.001951265				
61.1	34.22832	0.001952214				
61.2	34.24835	0.001953356				
61.3	34.26839	0.001954335				
61.4	34.28839	0.001955654				
61.5	34.30839	0.001956668				
61.6	34.3284	0.001957907				
61.7	34.34842	0.001958825				
61.8	34.36847	0.00195994				
61.9	34.38849	0.001960878				
62	34.4085	0.001962144				
62.1	34.42855	0.001963119				
62.2	34.44856	0.001964193				
62.3	34.46859	0.001965559				
62.4	34.48861	0.001966486				
62.5	34.50863	0.001967663				
62.6	34.52863	0.001968554				
62.7	34.54863	0.001969987				
62.8	34.56864	0.00197089				
62.9	34.58863	0.001971909				
63	34.60864	0.001973047				
63.1	34.62863	0.001974042				
63.2	34.64862	0.001975438				
63.3	34.66861	0.001976243				
63.4	34.68859	0.001977564				
63.5	34.70858	0.001978377				
63.6	34.72859	0.001979589				
63.7	34.74855	0.001980712				
63.8	34.76855	0.001981632				
63.9	34.78853	0.001982757				
64	34.80854	0.001983989				
64.1	34.82851	0.001984807				
64.2	34.84848	0.001986116				
64.3	34.86845	0.001987016				
64.4	34.88842	0.001988188				
64.5	34.90841	0.001989451				
64.6	34.92838	0.001990305				
64.7	34.94835	0.001991607				
64.8	34.96834	0.001992373				
64.9	34.9883	0.00199381				
65	35.00828	0.001994567				
65.1	35.02825	0.001995826				
65.2	35.04821	0.001996889				
65.3	35.06817	0.001998027				
65.4	35.08814	0.001998987				
65.5	35.10814	0.001999945				
65.6	35.12813	0.0020011				
65.7	35.14814	0.002002096				
65.8	35.16814	0.002003336				
65.9	35.1881	0.002004131				
66	35.2081	0.002005515				
66.1	35.22812	0.002006571				
66.2	35.24814	0.002007723				
66.3	35.26817	0.002008601				
66.4	35.28817	0.002009732				
66.5	35.3082	0.002010842				
66.6	35.3282	0.0020117				
66.7	35.34822	0.002012987				
66.8	35.36825	0.002013839				
66.9	35.38826	0.002015015				
67	35.40827	0.002015856				
67.1	35.4283	0.002017138				
67.2	35.44833	0.002018008				
67.3	35.46839	0.002019372				
67.4	35.48843	0.002020198				
67.5	35.50846	0.002021272				
67.6	35.52848	0.002022289				
67.7	35.54849	0.002023498				
67.8	35.56852	0.002024498				
67.9	35.58853	0.002025332				
68	35.60854	0.002026545				
68.1	35.62853	0.00202748				
68.2	35.64852	0.002028803				
68.3	35.6685	0.002029502				
68.4	35.68849	0.002030673				
68.5	35.70848	0.00203167				
68.6	35.72845	0.002032851				
68.7	35.74842	0.0020337				
68.8	35.76839	0.002034699				
68.9	35.78835	0.002035944				
69	35.80833	0.002036904				
69.1	35.82834	0.00203797				
69.2	35.84831	0.002038964				
69.3	35.86826	0.002040082				
69.4	35.88818	0.002041001				
69.5	35.90813	0.002042074				
69.6	35.92808	0.002042947				
69.7	35.94805	0.002043986				
69.8	35.968	0.002045064				
69.9	35.98794	0.002046218				
70	36.0079	0.002047093				
70.1	36.02789	0.00204825				
70.2	36.04786	0.002049262				
70.3	36.06782	0.002050274				
70.4	36.08776	0.002051434				
70.5	36.10771	0.002052213				
70.6	36.12769	0.00205356				
70.7	36.14768	0.002054348				
70.8	36.16767	0.002055429				
70.9	36.18766	0.0020565				
71	36.20762	0.002057602				
71.1	36.22761	0.002058632				
71.2	36.24758	0.002059599				
71.3	36.26758	0.00206066				
71.4	36.28759	0.002061628				
71.5	36.3076	0.00206278				
71.6	36.32763	0.002063597				
71.7	36.34764	0.002064801				
71.8	36.36765	0.002065605				
71.9	36.38767	0.002066634				
72	36.40771	0.002067704				
72.1	36.42772	0.002068852				
72.2	36.44772	0.002069731				
72.3	36.46771	0.002070868				
72.4	36.48775	0.002071673				
72.5	36.50778	0.002072829				
72.6	36.5278	0.002073832				
72.7	36.54781	0.002074568				
72.8	36.56781	0.002075757				
72.9	36.5878	0.002076704				
73	36.60782	0.002077729				
73.1	36.62781	0.002078543				
73.2	36.6478	0.002079775				
73.3	36.66777	0.00208069				
73.4	36.68776	0.002081809				
73.5	36.70774	0.002082702				
73.6	36.72774	0.002083742				
73.7	36.7477	0.002084816				
73.8	36.76768	0.002085599				
73.9	36.78767	0.002086654				
74	36.80766	0.002087697				
74.1	36.82761	0.002088765				
74.2	36.84761	0.002089654				
74.3	36.8676	0.002090489				
74.4	36.88757	0.002091565				
74.5	36.90753	0.002092713				
74.6	36.92748	0.002093351				
74.7	36.94746	0.002094552				
74.8	36.96743	0.002095538				
74.9	36.98738	0.002096482				
75	37.00735	0.002097462				
75.1	37.02732	0.002098213				
75.2	37.04732	0.002099478				
75.3	37.06731	0.002100241				
75.4	37.08729	0.002101326				
75.5	37.10728	0.002102178				
75.6	37.12726	0.002103235				
75.7	37.14724	0.002104205				
75.8	37.16724	0.002105202				
75.9	37.1872	0.00210623				
76	37.20714	0.002106998				
76.1	37.2271	0.002108156				
76.2	37.24707	0.002108971				
76.3	37.26703	0.002110178				
76.4	37.28702	0.002110846				
76.5	37.30701	0.002112006				
76.6	37.32697	0.0021128				
76.7	37.34701	0.002113836				
76.8	37.36699	0.002114794				
76.9	37.38702	0.002115866				
77	37.40704	0.00211669				
77.1	37.42706	0.002117495				
77.2	37.44709	0.002118607				
77.3	37.46714	0.002119432				
77.4	37.48716	0.002120479				
77.5	37.5072	0.002121272				
77.6	37.5272	0.002122422				
77.7	37.54721	0.002123205				
77.8	37.5672	0.002124338				
77.9	37.5872	0.002125136				
78	37.60723	0.002126152				
78.1	37.62728	0.00212697				
78.2	37.64731	0.002128086				
78.3	37.66734	0.002128992				
78.4	37.68737	0.00212981				
78.5	37.7074	0.002131128				
78.6	37.72746	0.002131731				
78.7	37.7475	0.002132957				
78.8	37.7675	0.002133652				
78.9	37.78752	0.002134689				
79	37.80751	0.002135547				
79.1	37.82751	0.002136517				
79.2	37.84752	0.002137375				
79.3	37.86752	0.002138346				
79.4	37.88754	0.002139302				
79.5	37.90755	0.002139974				
79.6	37.92756	0.002141079				
79.7	37.9476	0.002141916				
79.8	37.96764	0.002143024				
79.9	37.98769	0.002143755				
80	38.00772	0.002144839				
80.1	38.02772	0.002145593				
80.2	38.0477	0.002146703				
80.3	38.06769	0.002147606				
80.4	38.08769	0.002148476				
80.5	38.10768	0.002149335				
80.6	38.12767	0.002150289				
80.7	38.14767	0.002151359				
80.8	38.16764	0.002151962				
80.9	38.18762	0.002153297				
81	38.2076	0.00215384				
81.1	38.22759	0.002155025				
81.2	38.24756	0.002155764				
81.3	38.26752	0.00215675				
81.4	38.28747	0.002157544				
81.5	38.30742	0.002158472				
81.6	38.32737	0.002159423				
81.7	38.34732	0.002160098				
81.8	38.36725	0.002161265				
81.9	38.38719	0.002161929				
82	38.40713	0.002163043				
82.1	38.42708	0.00216355				
82.2	38.44703	0.002164829				
82.3	38.46701	0.002165482				
82.4	38.48697	0.002166492				
82.5	38.5069	0.002167407				
82.6	38.52687	0.002168229				
82.7	38.5468	0.00216933				
82.8	38.56676	0.002169938				
82.9	38.58672	0.002171054				
83	38.60669	0.002171655				
83.1	38.62665	0.002172881				
83.2	38.64661	0.002173544				
83.3	38.66658	0.002174608				
83.4	38.68655	0.002175293				
83.5	38.70654	0.002176235				
83.6	38.72652	0.002177258				
83.7	38.74651	0.002178068				
83.8	38.76652	0.002178731				
83.9	38.78651	0.002179895				
84	38.80649	0.002180674				
84.1	38.82648	0.002181319				
84.2	38.84646	0.002182501				
84.3	38.86645	0.002183046				
84.4	38.88642	0.002184209				
84.5	38.90641	0.002184877				
84.6	38.92642	0.002185744				
84.7	38.94642	0.002186605				
84.8	38.96643	0.002187479				
84.9	38.98643	0.002188332				
85	39.00644	0.002189098				
85.1	39.02647	0.002189962				
85.2	39.04652	0.002190757				
85.3	39.06658	0.002191799				
85.4	39.08664	0.002192367				
85.5	39.10671	0.002193435				
85.6	39.12676	0.002194241				
85.7	39.1468	0.002195066				
85.8	39.16685	0.002195917				
85.9	39.18691	0.002196899				
86	39.20698	0.002197634				
86.1	39.22705	0.002198225				
86.2	39.24711	0.002199303				
86.3	39.26718	0.002199964				
86.4	39.28725	0.002201026				
86.5	39.30731	0.002201705				
86.6	39.32735	0.002202688				
86.7	39.34738	0.002203443				
86.8	39.36742	0.002204428				
86.9	39.38746	0.002205072				
87	39.4075	0.002205994				
87.1	39.42756	0.002206714				
87.2	39.44756	0.00220751				
87.3	39.46756	0.002208645				
87.4	39.48755	0.002209193				
87.5	39.50754	0.002210062				
87.6	39.52752	0.00221078				
87.7	39.54751	0.002211782				
87.8	39.56751	0.002212424				
87.9	39.58751	0.002213301				
88	39.60749	0.002214218				
88.1	39.62747	0.002214818				
88.2	39.64744	0.002215919				
88.3	39.66743	0.002216547				
88.4	39.68741	0.002217339				
88.5	39.70739	0.002218195				
88.6	39.72737	0.002219141				
88.7	39.74738	0.002219717				
88.8	39.76736	0.002220718				
88.9	39.78732	0.002221445				
89	39.8073	0.002222199				
89.1	39.82728	0.00222308				
89.2	39.84726	0.00222383				
89.3	39.86723	0.002224714				
89.4	39.8872	0.002225504				
89.5	39.9072	0.002226237				
89.6	39.92718	0.002226899				
89.7	39.94717	0.002227967				
89.8	39.96716	0.002228642				
89.9	39.98712	0.002229488				
90	40.00707	0.002230165				
90.1	40.02705	0.002231108				
90.2	40.047	0.002231823				
90.3	40.06698	0.00223253				
90.4	40.08693	0.002233416				
90.5	40.10689	0.002234153				
90.6	40.12682	0.002234994				
90.7	40.14676	0.002235681				
90.8	40.16666	0.002236471				
90.9	40.18663	0.002237108				
91	40.20659	0.002238111				
91.1	40.22653	0.002238731				
91.2	40.24647	0.002239441				
91.3	40.26641	0.002240254				
91.4	40.28637	0.002240965				
91.5	40.30634	0.002241777				
91.6	40.3263	0.002242506				
91.7	40.34625	0.002243204				
91.8	40.36622	0.002243956				
91.9	40.3862	0.002244834				
92	40.40617	0.002245363				
92.1	40.42615	0.002246261				
92.2	40.44611	0.002246776				
92.3	40.46607	0.002247786				
92.4	40.48607	0.002248425				
92.5	40.50604	0.002249127				
92.6	40.52603	0.002249721				
92.7	40.54603	0.002250752				
92.8	40.56605	0.002251279				
92.9	40.58607	0.002251979				
93	40.60605	0.002252664				
93.1	40.62605	0.0022535				
93.2	40.64604	0.002254345				
93.3	40.66603	0.002254826				
93.4	40.68601	0.002255671				
93.5	40.70598	0.002256335				
93.6	40.7259	0.002257221				
93.7	40.74585	0.002257658				
93.8	40.76582	0.002258578				
93.9	40.78578	0.002259187				
94	40.80573	0.002259917				
94.1	40.82572	0.002260623				
94.2	40.8457	0.002261102				
94.3	40.86569	0.002262042				
94.4	40.88569	0.002262637				
94.5	40.90566	0.002263387				
94.6	40.92564	0.00226394				
94.7	40.94561	0.002265009				
94.8	40.96561	0.002265406				
94.9	40.98561	0.002266248				
95	41.00559	0.002266755				
95.1	41.02557	0.00226757				
95.2	41.04558	0.002268205				
95.3	41.06558	0.002268895				
95.4	41.08557	0.002269562				
95.5	41.1056	0.002270199				
95.6	41.12562	0.002271154				
95.7	41.14566	0.002271441				
95.8	41.16567	0.002272345				
95.9	41.18568	0.00227287				
96	41.20568	0.002273602				
96.1	41.22569	0.002274285				
96.2	41.24568	0.002274945				
96.3	41.26568	0.0022755				
96.4	41.28566	0.002276382				
96.5	41.30564	0.002276944				
96.6	41.32564	0.002277475				
96.7	41.34565	0.002278379				
96.8	41.36566	0.00227885				
96.9	41.38566	0.00227962				
97	41.40566	0.002280136				
97.1	41.42568	0.002280849				
97.2	41.44571	0.002281485				
97.3	41.46573	0.002282171				
97.4	41.48577	0.0022828				
97.5	41.50578	0.002283292				
97.6	41.5258	0.002284131				
97.7	41.54582	0.002284624				
97.8	41.56585	0.002285384				
97.9	41.58588	0.002285741				
98	41.6059	0.002286725				
98.1	41.62594	0.002287165				
98.2	41.64597	0.00228802				
98.3	41.66601	0.0022882				
98.4	41.68606	0.002288958				
98.5	41.7061	0.002289832				
98.6	41.72615	0.0022901				
98.7	41.74618	0.002290958				
98.8	41.7662	0.002291367				
98.9	41.78623	0.002292293				
99	41.80625	0.002292596				
99.1	41.82627	0.002293424				
99.2	41.84628	0.002293622				
99.3	41.86629	0.002294443				
99.4	41.88627	0.002295008				
99.5	41.90627	0.002295474				
99.6	41.92628	0.002296148				
99.7	41.94627	0.002296602				
99.8	41.96626	0.002297335				
99.9	41.98624	0.002297822				
100	42.00622	0.002298622				
100.1	42.02618	0.002299046				
100.2	42.04616	0.002299821				
100.3	42.06614	0.002299973				
100.4	42.08609	0.002300874				
100.5	42.10605	0.002301392				
100.6	42.12601	0.002301913				
100.7	42.14596	0.00230251				
100.8	42.16594	0.002303017				
100.9	42.18589	0.002303641				
101	42.20585	0.002304131				
101.1	42.2258	0.002304867				
101.2	42.24578	0.002305117				
101.3	42.26573	0.002305992				
101.4	42.28572	0.002306192				
101.5	42.30568	0.002306923				
101.6	42.32563	0.002307232				
101.7	42.34561	0.002307945				
101.8	42.3656	0.002308439				
101.9	42.38559	0.002308882				
102	42.40559	0.002309448				
102.1	42.42557	0.002309794				
102.2	42.44556	0.00231058				
102.3	42.46554	0.00231102				
102.4	42.48554	0.002311714				
102.5	42.50556	0.002311949				
102.6	42.52557	0.002312648				
102.7	42.54558	0.002313058				
102.8	42.56559	0.002313699				
102.9	42.58562	0.002314093				
103	42.60564	0.002314485				
103.1	42.62568	0.002315303				
103.2	42.6457	0.002315497				
103.3	42.66569	0.002316129				
103.4	42.68571	0.002316495				
103.5	42.7057	0.002317151				
103.6	42.72572	0.002317504				
103.7	42.74576	0.002318097				
103.8	42.76575	0.002318361				
103.9	42.78576	0.002319031				
104	42.80575	0.00231939				
104.1	42.82574	0.002319864				
104.2	42.84577	0.002320415				
104.3	42.86576	0.002320883				
104.4	42.88575	0.002321432				
104.5	42.90573	0.002321724				
104.6	42.9257	0.002322261				
104.7	42.94566	0.00232263				
104.8	42.96563	0.00232325				
104.9	42.9856	0.002323736				
105	43.00556	0.002324185				
105.1	43.02552	0.002324453				
105.2	43.04548	0.002325131				
105.3	43.06547	0.002325374				
105.4	43.08544	0.002325801				
105.5	43.10543	0.002326583				
105.6	43.12542	0.002326721				
105.7	43.1454	0.00232733				
105.8	43.16537	0.00232765				
105.9	43.18532	0.002328059				
106	43.20526	0.002328542				
106.1	43.22525	0.002329009				
106.2	43.24523	0.002329233				
106.3	43.26519	0.002329704				
106.4	43.28516	0.002330149				
106.5	43.30515	0.002330552				
106.6	43.32513	0.002331001				
106.7	43.3451	0.002331177				
106.8	43.36509	0.002331831				
106.9	43.38505	0.002332196				
107	43.405	0.002332595				
107.1	43.42498	0.002332899				
107.2	43.44497	0.002333446				
107.3	43.46495	0.002333885				
107.4	43.48492	0.002334366				
107.5	43.50491	0.002334501				
107.6	43.5249	0.002335118				
107.7	43.54487	0.002335451				
107.8	43.56486	0.002335711				
107.9	43.58487	0.002336116				
108	43.60489	0.002336287				
108.1	43.62493	0.002337023				
108.2	43.64494	0.002337163				
108.3	43.66497	0.002337467				
108.4	43.685	0.0023378				
108.5	43.70502	0.002338394				
108.6	43.72505	0.002338589				
108.7	43.74508	0.002339018				
108.8	43.76511	0.002339296				
108.9	43.78515	0.002339625				
109	43.80519	0.002340157				
109.1	43.82524	0.002340268				
109.2	43.84525	0.002340661				
109.3	43.86525	0.002340969				
109.4	43.88527	0.002341449				
109.5	43.90529	0.002341288				
109.6	43.92529	0.002341987				
109.7	43.94529	0.002342181				
109.8	43.96531	0.002342726				
109.9	43.98533	0.002342829				
110	44.00533	0.002343227				
110.1	44.0253	0.002343541				
110.2	44.04526	0.00234378				
110.3	44.06523	0.002344171				
110.4	44.08519	0.002344307				
110.5	44.10515	0.002344711				
110.6	44.12512	0.002344989				
110.7	44.14507	0.002345357				
110.8	44.16501	0.002345421				
110.9	44.18498	0.002345891				
111	44.20495	0.002346111				
111.1	44.22491	0.002346137				
111.2	44.24489	0.002346479				
111.3	44.26484	0.002346783				
111.4	44.28482	0.002346972				
111.5	44.30477	0.002347222				
111.6	44.32473	0.002347597				
111.7	44.34467	0.002347618				
111.8	44.36462	0.002348074				
111.9	44.38457	0.002348261				
112	44.40449	0.002348446				
112.1	44.42446	0.002348562				
112.2	44.44442	0.002348985				
112.3	44.46441	0.002349098				
112.4	44.48437	0.002349275				
112.5	44.50434	0.002349521				
112.6	44.52435	0.002349676				
112.7	44.54434	0.002350087				
112.8	44.56433	0.002349967				
112.9	44.58432	0.002350581				
113	44.60432	0.002350492				
113.1	44.62432	0.002351017				
113.2	44.64433	0.002350904				
113.3	44.66433	0.002351146				
113.4	44.68435	0.002351286				
113.5	44.70438	0.002351555				
113.6	44.72441	0.002351702				
113.7	44.74442	0.002351636				
113.8	44.76449	0.00235219				
113.9	44.78454	0.002352082				
114	44.80458	0.002352501				
114.1	44.82464	0.002352414				
114.2	44.84468	0.002352541				
114.3	44.86472	0.002352702				
114.4	44.88472	0.002352909				
114.5	44.90478	0.002352929				
114.6	44.92484	0.002353013				
114.7	44.94487	0.002353327				
114.8	44.96493	0.002353148				
114.9	44.98498	0.00235341				
115	45.00504	0.002353321				
115.1	45.02509	0.002353698				
115.2	45.04516	0.002353674				
115.3	45.06521	0.002354041				
115.4	45.08526	0.0023539				
115.5	45.10532	0.002354162				
115.6	45.12538	0.002354153				
115.7	45.14544	0.002354191				
115.8	45.16552	0.002354355				
115.9	45.18556	0.002354208				
116	45.20561	0.002354687				
116.1	45.22566	0.002354326				
116.2	45.24571	0.002354689				
116.3	45.26575	0.002354623				
116.4	45.28582	0.002354947				
116.5	45.30587	0.002354856				
116.6	45.32589	0.00235491				
116.7	45.34592	0.002355075				
116.8	45.36593	0.002355029				
116.9	45.38593	0.002355193				
117	45.40593	0.002355099				
117.1	45.42591	0.002355116				
117.2	45.44588	0.002355106				
117.3	45.46584	0.002355345				
117.4	45.48581	0.002354974				
117.5	45.50577	0.002355266				
117.6	45.52572	0.002355131				
117.7	45.54566	0.002355289				
117.8	45.5656	0.002355135				
117.9	45.58553	0.002355007				
118	45.60548	0.002355276		118	0.002355276	
118.1	45.62542	0.002355147		166	0.001974663	
118.2	45.64533	0.002355132		48	-0.000380613	-7.92944E-06
118.3	45.66526	0.002355047				
118.4	45.68518	0.002355231				
118.5	45.70512	0.002355069				
118.6	45.72507	0.002355059				
118.7	45.745	0.002354867				
118.8	45.76495	0.002355002				
118.9	45.7849	0.002355081				
119	45.80484	0.002354927				
119.1	45.82479	0.002354892				
119.2	45.84476	0.00235473				
119.3	45.86473	0.002354898				
119.4	45.8847	0.00235465				
119.5	45.90466	0.002354634				
119.6	45.92463	0.002354556				
119.7	45.94461	0.00235458				
119.8	45.96457	0.002354406				
119.9	45.98455	0.002354419				
120	46.00451	0.002354278				
120.1	46.02449	0.002354158				
120.2	46.04448	0.002354112				
120.3	46.06448	0.002353973				
120.4	46.08447	0.002353901				
120.5	46.10444	0.002353683				
120.6	46.1244	0.002353735				
120.7	46.14439	0.00235342				
120.8	46.16436	0.002353336				
120.9	46.18433	0.002353185				
121	46.20431	0.002353206				
121.1	46.2243	0.002352867				
121.2	46.24427	0.00235287				
121.3	46.26424	0.002352601				
121.4	46.2842	0.002352519				
121.5	46.30417	0.002352306				
121.6	46.32417	0.0023521				
121.7	46.34416	0.002352052				
121.8	46.36415	0.002351817				
121.9	46.38415	0.002351804				
122	46.40416	0.002351301				
122.1	46.42415	0.002351358				
122.2	46.44414	0.002350938				
122.3	46.46414	0.002350973				
122.4	46.48411	0.002350534				
122.5	46.50412	0.002350395				
122.6	46.52412	0.002350093				
122.7	46.54414	0.002350007				
122.8	46.56413	0.002349631				
122.9	46.58413	0.002349282				
123	46.60413	0.002349266				
123.1	46.62414	0.002349009				
123.2	46.64414	0.002348651				
123.3	46.66414	0.002348403				
123.4	46.68416	0.002348203				
123.5	46.70417	0.002347771				
123.6	46.72419	0.002347806				
123.7	46.74421	0.002347227				
123.8	46.76422	0.002346959				
123.9	46.78421	0.002346837				
124	46.8042	0.002346448				
124.1	46.82421	0.002346081				
124.2	46.84422	0.002345704				
124.3	46.86422	0.002345705				
124.4	46.88422	0.002345026				
124.5	46.90424	0.002344954				
124.6	46.92426	0.002344443				
124.7	46.94426	0.002344195				
124.8	46.96429	0.002343821				
124.9	46.9843	0.002343499				
125	47.0043	0.002343093				
125.1	47.0243	0.002342811				
125.2	47.04431	0.002342522				
125.3	47.06432	0.002341889				
125.4	47.08433	0.002341803				
125.5	47.10431	0.00234136				
125.6	47.12432	0.002341139				
125.7	47.14433	0.002340572				
125.8	47.16433	0.002340388				
125.9	47.18434	0.002339808				
126	47.20434	0.002339639				
126.1	47.22434	0.002339067				
126.2	47.24433	0.002338567				
126.3	47.26432	0.002338369				
126.4	47.28434	0.002337707				
126.5	47.30433	0.00233738				
126.6	47.3243	0.002336774				
126.7	47.34431	0.002336623				
126.8	47.36429	0.002335845				
126.9	47.38425	0.002335657				
127	47.40424	0.002335026				
127.1	47.42423	0.002334741				
127.2	47.44422	0.002334263				
127.3	47.46421	0.002333772				
127.4	47.48418	0.002333341				
127.5	47.50416	0.002332657				
127.6	47.52415	0.002332449				
127.7	47.54411	0.002331663				
127.8	47.56407	0.002331429				
127.9	47.58404	0.002330659				
128	47.60403	0.002330437				
128.1	47.62401	0.002329693				
128.2	47.64399	0.002329246				
128.3	47.66395	0.002328716				
128.4	47.68391	0.00232806				
128.5	47.70386	0.002327722				
128.6	47.72382	0.002327063				
128.7	47.74378	0.002326458				
128.8	47.76374	0.002325901				
128.9	47.78371	0.00232557				
129	47.80367	0.002324717				
129.1	47.82366	0.002324324				
129.2	47.84364	0.002323571				
129.3	47.8636	0.00232325				
129.4	47.88358	0.002322361				
129.5	47.90357	0.002321856				
129.6	47.92356	0.002321353				
129.7	47.94354	0.002320603				
129.8	47.96354	0.002320218				
129.9	47.98353	0.002319265				
130	48.00351	0.002319037				
130.1	48.02349	0.002318082				
130.2	48.0435	0.002317701				
130.3	48.0635	0.002316869				
130.4	48.08349	0.002316272				
130.5	48.10349	0.002315663				
130.6	48.12353	0.002314858				
130.7	48.14353	0.002314266				
130.8	48.16355	0.002313571				
130.9	48.18355	0.00231307				
131	48.20357	0.002312286				
131.1	48.22358	0.002311539				
131.2	48.24357	0.002310706				
131.3	48.26358	0.00231032				
131.4	48.28357	0.00230934				
131.5	48.30356	0.002308703				
131.6	48.32355	0.002307907				
131.7	48.34354	0.002307292				
131.8	48.36355	0.002306706				
131.9	48.3835	0.002305732				
132	48.4035	0.002305148				
132.1	48.42349	0.002304227				
132.2	48.44348	0.002303856				
132.3	48.46345	0.002302844				
132.4	48.48343	0.002302187				
132.5	48.5034	0.002301275				
132.6	48.52339	0.002300776				
132.7	48.54334	0.002299799				
132.8	48.56331	0.002299049				
132.9	48.58328	0.002298362				
133	48.60325	0.002297572				
133.1	48.6232	0.002296923				
133.2	48.64318	0.002295869				
133.3	48.66316	0.00229523				
133.4	48.68311	0.002294325				
133.5	48.70309	0.002293583				
133.6	48.72306	0.002292756				
133.7	48.74305	0.002291921				
133.8	48.76304	0.002291116				
133.9	48.78302	0.002290301				
134	48.80303	0.002289326				
134.1	48.82301	0.002288481				
134.2	48.84298	0.002287853				
134.3	48.86296	0.002286789				
134.4	48.88296	0.002286232				
134.5	48.90295	0.002285069				
134.6	48.92296	0.002284417				
134.7	48.94296	0.002283423				
134.8	48.96296	0.002282775				
134.9	48.98296	0.002281729				
135	49.00296	0.002280767				
135.1	49.02297	0.002279912				
135.2	49.04298	0.002279062				
135.3	49.06298	0.00227813				
135.4	49.083	0.002277205				
135.5	49.10304	0.002276297				
135.6	49.12305	0.002275313				
135.7	49.14307	0.002274418				
135.8	49.16306	0.002273356				
135.9	49.18307	0.002272555				
136	49.20308	0.002271585				
136.1	49.22311	0.002270612				
136.2	49.24314	0.002269482				
136.3	49.26317	0.002268586				
136.4	49.28318	0.002267621				
136.5	49.30323	0.002266707				
136.6	49.32326	0.002265658				
136.7	49.34327	0.002264638				
136.8	49.36331	0.002263743				
136.9	49.38335	0.002262642				
137	49.40338	0.002261606				
137.1	49.4234	0.002260509				
137.2	49.44344	0.002259616				
137.3	49.46348	0.002258522				
137.4	49.48349	0.002257502				
137.5	49.50351	0.002256508				
137.6	49.52352	0.002255515				
137.7	49.54355	0.002254355				
137.8	49.56358	0.002253337				
137.9	49.5836	0.002252355				
138	49.60361	0.002251248				
138.1	49.62362	0.002250404				
138.2	49.64363	0.002248991				
138.3	49.66364	0.002248052				
138.4	49.68364	0.002246962				
138.5	49.70363	0.002246064				
138.6	49.72362	0.002244816				
138.7	49.74363	0.002243727				
138.8	49.76363	0.002242801				
138.9	49.78362	0.002241528				
139	49.80362	0.002240483				
139.1	49.82363	0.002239404				
139.2	49.84362	0.002238267				
139.3	49.86363	0.002237281				
139.4	49.88364	0.002236246				
139.5	49.90365	0.002234911				
139.6	49.92366	0.002233837				
139.7	49.94366	0.002232687				
139.8	49.96367	0.002231552				
139.9	49.98367	0.002230442				
140	50.00369	0.002229087				
140.1	50.02373	0.002228146				
140.2	50.04372	0.002226904				
140.3	50.06372	0.002225894				
140.4	50.08374	0.002224471				
140.5	50.10376	0.002223615				
140.6	50.12377	0.002222214				
140.7	50.14376	0.002221163				
140.8	50.16375	0.00222001				
140.9	50.18373	0.002218865				
141	50.20371	0.002217731				
141.1	50.22369	0.002216385				
141.2	50.24367	0.002215437				
141.3	50.26365	0.002214051				
141.4	50.28363	0.002213194				
141.5	50.3036	0.002211744				
141.6	50.32358	0.002210649				
141.7	50.34354	0.002209226				
141.8	50.3635	0.002208323				
141.9	50.38346	0.002206897				
142	50.40344	0.002205666				
142.1	50.42338	0.002204545				
142.2	50.44331	0.002203209				
142.3	50.46329	0.002202038				
142.4	50.48326	0.002200681				
142.5	50.50322	0.002199851				
142.6	50.52319	0.002198195				
142.7	50.54314	0.002197308				
142.8	50.56309	0.00219576				
142.9	50.58307	0.00219476				
143	50.60307	0.002193467				
143.1	50.62305	0.002192175				
143.2	50.64304	0.002190899				
143.3	50.66304	0.002189592				
143.4	50.68301	0.00218856				
143.5	50.70301	0.002187066				
143.6	50.72301	0.002185938				
143.7	50.74302	0.002184586				
143.8	50.76305	0.002183496				
143.9	50.78307	0.002181955				
144	50.80308	0.002180951				
144.1	50.82311	0.002179411				
144.2	50.84317	0.002178366				
144.3	50.86321	0.002177064				
144.4	50.88325	0.002175529				
144.5	50.90327	0.002174613				
144.6	50.92332	0.002173157				
144.7	50.94338	0.002172086				
144.8	50.96345	0.002170413				
144.9	50.98353	0.002169443				
145	51.00361	0.002167874				
145.1	51.02366	0.002166684				
145.2	51.04372	0.002165503				
145.3	51.06378	0.002164105				
145.4	51.08385	0.002162702				
145.5	51.10392	0.00216146				
145.6	51.12396	0.002160237				
145.7	51.144	0.002158747				
145.8	51.16404	0.00215763				
145.9	51.18408	0.00215617				
146	51.20411	0.002155038				
146.1	51.22414	0.00215363				
146.2	51.24418	0.002152342				
146.3	51.26422	0.002150927				
146.4	51.28427	0.002149831				
146.5	51.30429	0.002148341				
146.6	51.32431	0.002146866				
146.7	51.34433	0.002145794				
146.8	51.36435	0.00214421				
146.9	51.38437	0.002143104				
147	51.40437	0.002141473				
147.1	51.42436	0.002140401				
147.2	51.44437	0.002139054				
147.3	51.46438	0.002137722				
147.4	51.48438	0.002136384				
147.5	51.5044	0.002135091				
147.6	51.52439	0.002133622				
147.7	51.54439	0.002132376				
147.8	51.56438	0.002131097				
147.9	51.58438	0.002129563				
148	51.60438	0.002128486				
148.1	51.62437	0.002126945				
148.2	51.64434	0.002125846				
148.3	51.66428	0.002124348				
148.4	51.68421	0.002122985				
148.5	51.70417	0.002121641				
148.6	51.72414	0.002120279				
148.7	51.74411	0.002118967				
148.8	51.76406	0.002117711				
148.9	51.784	0.002116426				
149	51.80395	0.002114955				
149.1	51.82391	0.00211372				
149.2	51.84384	0.002112319				
149.3	51.86379	0.00211118				
149.4	51.88374	0.002109566				
149.5	51.90367	0.002108536				
149.6	51.92362	0.002106862				
149.7	51.94356	0.002105798				
149.8	51.96351	0.002104261				
149.9	51.98345	0.002102897				
150	52.00338	0.002101602				
150.1	52.02331	0.002100411				
150.2	52.04326	0.002098872				
150.3	52.06321	0.002097587				
150.4	52.08318	0.002096388				
150.5	52.10316	0.002094963				
150.6	52.12313	0.002093824				
150.7	52.14308	0.002092402				
150.8	52.16303	0.002091095				
150.9	52.18301	0.002089867				
151	52.203	0.002088608				
151.1	52.22297	0.002087213				
151.2	52.24294	0.002086045				
151.3	52.26294	0.002084749				
151.4	52.28293	0.002083381				
151.5	52.30293	0.002082039				
151.6	52.32296	0.002080588				
151.7	52.34298	0.002079645				
151.8	52.36304	0.002078267				
151.9	52.3831	0.002077113				
152	52.40317	0.002075515				
152.1	52.42323	0.002074513				
152.2	52.44332	0.002073212				
152.3	52.46337	0.002071905				
152.4	52.48344	0.002070577				
152.5	52.50351	0.00206934				
152.6	52.52356	0.00206818				
152.7	52.54363	0.002066915				
152.8	52.56371	0.00206578				
152.9	52.58378	0.002064266				
153	52.60387	0.00206334				
153.1	52.62396	0.002061793				
153.2	52.64406	0.002060727				
153.3	52.66414	0.002059318				
153.4	52.68422	0.002058368				
153.5	52.7043	0.002056977				
153.6	52.72436	0.002055842				
153.7	52.74443	0.002054602				
153.8	52.76448	0.002053473				
153.9	52.78451	0.002052315				
154	52.80454	0.002050896				
154.1	52.82456	0.002049982				
154.2	52.8446	0.002048684				
154.3	52.86463	0.002047529				
154.4	52.88468	0.002046299				
154.5	52.90473	0.002045223				
154.6	52.92474	0.002043917				
154.7	52.94476	0.002042997				
154.8	52.96477	0.002041816				
154.9	52.98478	0.002040564				
155	53.00476	0.00203972				
155.1	53.02475	0.002038364				
155.2	53.04472	0.002037493				
155.3	53.06472	0.002036069				
155.4	53.0847	0.002035222				
155.5	53.10469	0.00203398				
155.6	53.12467	0.00203287				
155.7	53.14463	0.00203207				
155.8	53.16458	0.002030686				
155.9	53.18454	0.002029808				
156	53.20448	0.002028595				
156.1	53.22443	0.002027651				
156.2	53.24437	0.002026427				
156.3	53.26431	0.002025748				
156.4	53.28427	0.002024433				
156.5	53.30421	0.002023669				
156.6	53.32417	0.002022459				
156.7	53.34415	0.002021681				
156.8	53.36409	0.002020485				
156.9	53.38406	0.002019567				
157	53.40402	0.002018763				
157.1	53.42398	0.002017954				
157.2	53.44393	0.00201692				
157.3	53.46388	0.002015908				
157.4	53.4838	0.002015266				
157.5	53.50377	0.002014107				
157.6	53.52371	0.002013412				
157.7	53.54365	0.002012292				
157.8	53.56358	0.002011601				
157.9	53.58353	0.002010925				
158	53.6035	0.002009949				
158.1	53.62348	0.002009132				
158.2	53.64345	0.002008179				
158.3	53.66341	0.002007521				
158.4	53.68335	0.002006707				
158.5	53.7033	0.002005981				
158.6	53.72325	0.002004946				
158.7	53.74317	0.002004403				
158.8	53.7631	0.002003489				
158.9	53.78304	0.002002746				
159	53.803	0.002002033				
159.1	53.82296	0.002001163				
159.2	53.84293	0.002000508				
159.3	53.86288	0.001999686				
159.4	53.88286	0.001999257				
159.5	53.90284	0.001998286				
159.6	53.92282	0.001997792				
159.7	53.9428	0.001996974				
159.8	53.96279	0.001996461				
159.9	53.98277	0.001995638				
160	54.00274	0.001995076				
160.1	54.02272	0.001994343				
160.2	54.04268	0.001993854				
160.3	54.06268	0.001993192				
160.4	54.08268	0.001992579				
160.5	54.10268	0.001992061				
160.6	54.12267	0.001991285				
160.7	54.14268	0.001990838				
160.8	54.16272	0.001990203				
160.9	54.18275	0.001989781				
161	54.20275	0.001988942				
161.1	54.22276	0.001988592				
161.2	54.24277	0.001988344				
161.3	54.2628	0.001987705				
161.4	54.2828	0.001987346				
161.5	54.30281	0.001986688				
161.6	54.32284	0.001986366				
161.7	54.34285	0.001985623				
161.8	54.36286	0.001985251				
161.9	54.38289	0.001984643				
162	54.4029	0.001984446				
162.1	54.4229	0.001983847				
162.2	54.44293	0.001983434				
162.3	54.46296	0.001982945				
162.4	54.48297	0.001982567				
162.5	54.50297	0.001982179				
162.6	54.52298	0.001981661				
162.7	54.543	0.001981468				
162.8	54.56301	0.001980746				
162.9	54.583	0.00198074				
163	54.60303	0.001980219				
163.1	54.62305	0.001979852				
163.2	54.64308	0.00197957				
163.3	54.66308	0.001979255				
163.4	54.6831	0.001978915				
163.5	54.70314	0.001978421				
163.6	54.72316	0.001978385				
163.7	54.74316	0.001978043				
163.8	54.76316	0.001977816				
163.9	54.78317	0.001977393				
164	54.8032	0.001977335				
164.1	54.82323	0.001976937				
164.2	54.84325	0.001976984				
164.3	54.86325	0.001976508				
164.4	54.88326	0.001976501				
164.5	54.90326	0.001976238				
164.6	54.92326	0.00197602				
164.7	54.94326	0.001975928				
164.8	54.96325	0.001975775				
164.9	54.98324	0.001975607				
165	55.00323	0.001975453				
165.1	55.02322	0.001975398				
165.2	55.0432	0.001975213				
165.3	55.06317	0.001975129				
165.4	55.08316	0.001975165				
165.5	55.10312	0.00197493				
165.6	55.1231	0.001974778				
165.7	55.14308	0.001974907				
165.8	55.16305	0.001974678				
165.9	55.18302	0.001974876				
166	55.203	0.001974663				
166.1	55.22297	0.001974648				
166.2	55.24292	0.001974927				
166.3	55.2629	0.001974812				
166.4	55.28289	0.001974817				
166.5	55.30288	0.001974666				
166.6	55.32287	0.001974991				
166.7	55.34283	0.001974898				
166.8	55.36284	0.001974976				
166.9	55.38283	0.001975				
167	55.40283	0.001975231				
167.1	55.4228	0.001975266				
167.2	55.44279	0.001975347				
167.3	55.46279	0.001975485				
167.4	55.48279	0.001975505				
167.5	55.50279	0.00197604				
167.6	55.52279	0.001975881				
167.7	55.54277	0.001976107				
167.8	55.56276	0.00197614				
167.9	55.58279	0.001976476				
168	55.60284	0.001976572				
168.1	55.62284	0.001976822				
168.2	55.64289	0.001977028				
168.3	55.66296	0.001977428				
168.4	55.68299	0.001977649				
168.5	55.70301	0.001977846				
168.6	55.72302	0.001978237				
168.7	55.74307	0.001978284				
168.8	55.76311	0.00197896				
168.9	55.78314	0.001978917				
169	55.80317	0.00197947				
169.1	55.82321	0.00197953				
169.2	55.84325	0.001980116				
169.3	55.86329	0.001980337				
169.4	55.88332	0.001980882				
169.5	55.90335	0.001981242				
169.6	55.92336	0.001981581				
169.7	55.94339	0.00198199				
169.8	55.96343	0.001982268				
169.9	55.98347	0.001982911				
170	56.00347	0.001983177				
170.1	56.02347	0.001983744				
170.2	56.04349	0.001984068				
170.3	56.06346	0.001984619				
170.4	56.08344	0.001985018				
170.5	56.10344	0.001985529				
170.6	56.12343	0.001985963				
170.7	56.14342	0.001986287				
170.8	56.16339	0.001987085				
170.9	56.18338	0.001987479				
171	56.20338	0.001988048				
171.1	56.22337	0.001988253				
171.2	56.24334	0.001989083				
171.3	56.2633	0.001989449				
171.4	56.28327	0.001990174				
171.5	56.30323	0.001990568				
171.6	56.32321	0.00199123				
171.7	56.34321	0.001991918				
171.8	56.36318	0.00199237				
171.9	56.38317	0.001993089				
172	56.40315	0.001993551				
172.1	56.42312	0.001994371				
172.2	56.44311	0.001994697				
172.3	56.4631	0.001995678				
172.4	56.4831	0.001996127				
172.5	56.50309	0.00199693				
172.6	56.52308	0.001997535				
172.7	56.54309	0.001998148				
172.8	56.56309	0.001998915				
172.9	56.58312	0.001999733				
173	56.60311	0.002000494				
173.1	56.62312	0.002001032				
173.2	56.64313	0.002002026				
173.3	56.66316	0.002002522				
173.4	56.68317	0.002003619				
173.5	56.70319	0.002004132				
173.6	56.72321	0.002005093				
173.7	56.74321	0.002005903				
173.8	56.76321	0.002006722				
173.9	56.78322	0.002007563				
174	56.80321	0.002008148				
174.1	56.82322	0.002009337				
174.2	56.84324	0.002010104				
174.3	56.86322	0.002011123				
174.4	56.88323	0.002011843				
174.5	56.9032	0.002012944				
174.6	56.92319	0.002013709				
174.7	56.94317	0.00201475				
174.8	56.96316	0.002015381				
174.9	56.98316	0.002016657				
175	57.00315	0.00201752				
175.1	57.02315	0.002018331				
175.2	57.04314	0.002019384				
175.3	57.06316	0.002020221				
175.4	57.08315	0.002021504				
175.5	57.10315	0.002022151				
175.6	57.12317	0.00202346				
175.7	57.1432	0.002024291				
175.8	57.16322	0.002025494				
175.9	57.18324	0.002026334				
176	57.20326	0.002027527				
176.1	57.22328	0.002028539				
176.2	57.24329	0.002029597				
176.3	57.26331	0.002030723				
176.4	57.28332	0.002031752				
176.5	57.30335	0.002032894				
176.6	57.32339	0.002034037				
176.7	57.34344	0.002035182				
176.8	57.36347	0.002036224				
176.9	57.3835	0.002037538				
177	57.4035	0.002038712				
177.1	57.42351	0.00204001				
177.2	57.44354	0.002041168				
177.3	57.46354	0.002042436				
177.4	57.48358	0.002043819				
177.5	57.50361	0.002044915				
177.6	57.52362	0.002046225				
177.7	57.54363	0.002047267				
177.8	57.56363	0.002048959				
177.9	57.58364	0.002049988				
178	57.60366	0.002051352				
178.1	57.62367	0.002052682				
178.2	57.64371	0.002054059				
178.3	57.66374	0.002055503				
178.4	57.68377	0.002056765				
178.5	57.70381	0.002058169				
178.6	57.72385	0.002059375				
178.7	57.74387	0.002061141				
178.8	57.76391	0.002062114				
178.9	57.78394	0.002063806				
179	57.80398	0.002065076				
179.1	57.82402	0.002066514				
179.2	57.84404	0.002067972				
179.3	57.86407	0.002069269				
179.4	57.8841	0.002070837				
179.5	57.9041	0.002072188				
179.6	57.92411	0.002073833				
179.7	57.94412	0.002075118				
179.8	57.96413	0.0020768				
179.9	57.98413	0.002078274				
180	58.00415	0.002079687				
180.1	58.02415	0.002081291				
180.2	58.04417	0.002082699				
180.3	58.06413	0.002084329				
180.4	58.08411	0.002085598				
180.5	58.10408	0.002087247				
180.6	58.12404	0.002088868				
180.7	58.144	0.002090457				
180.8	58.16395	0.002091861				
180.9	58.18389	0.00209367				
181	58.20385	0.002094944				
181.1	58.22379	0.002096747				
181.2	58.24376	0.002098256				
181.3	58.26373	0.002099926				
181.4	58.28368	0.002101529				
181.5	58.30363	0.002103071				
181.6	58.32358	0.002104901				
181.7	58.34354	0.00210634				
181.8	58.36352	0.002108176				
181.9	58.38347	0.002109686				
182	58.40343	0.002111444				
182.1	58.42338	0.002112863				
182.2	58.44333	0.002114781				
182.3	58.46326	0.002116371				
182.4	58.48325	0.00211817				
182.5	58.5032	0.002119673				
182.6	58.52316	0.00212159				
182.7	58.54312	0.002123204				
182.8	58.5631	0.002124858				
182.9	58.58308	0.002126866				
183	58.60304	0.002128393				
183.1	58.62302	0.002130151				
183.2	58.64297	0.002131982				
183.3	58.66292	0.002133821				
183.4	58.68289	0.002135514				
183.5	58.70288	0.002137411				
183.6	58.72286	0.002139124				
183.7	58.74284	0.002140875				
183.8	58.76284	0.002142556				
183.9	58.78282	0.002144397				
184	58.80285	0.002146323				
184.1	58.82286	0.002148219				
184.2	58.84288	0.002149808				
184.3	58.8629	0.002151678				
184.4	58.88291	0.002153788				
184.5	58.90292	0.002155454				
184.6	58.92296	0.002157393				
184.7	58.94299	0.002159051				
184.8	58.96301	0.002161174				
184.9	58.98302	0.002162937				
185	59.00305	0.00216481				
185.1	59.0231	0.002166679				
185.2	59.04311	0.002168562				
185.3	59.06315	0.002170539				
185.4	59.08317	0.002172368				
185.5	59.1032	0.002174291				
185.6	59.1232	0.002176098				
185.7	59.14321	0.002178275				
185.8	59.16324	0.002179935				
185.9	59.18323	0.002182012				
186	59.20325	0.002183919				
186.1	59.22325	0.00218589				
186.2	59.24325	0.002187776				
186.3	59.26324	0.002189834				
186.4	59.28325	0.002191608				
186.5	59.30328	0.002193543				
186.6	59.32328	0.002195736				
186.7	59.34327	0.002197485				
186.8	59.36326	0.002199541				
186.9	59.38327	0.00220146				
187	59.40328	0.002203656				
187.1	59.42328	0.002205388				
187.2	59.44329	0.002207515				
187.3	59.46329	0.002209445				
187.4	59.4833	0.002211461				
187.5	59.50329	0.002213423				
187.6	59.5233	0.002215381				
187.7	59.54332	0.002217527				
187.8	59.56333	0.002219452				
187.9	59.58335	0.002221534				
188	59.60337	0.002223236				
188.1	59.62337	0.002225577				
188.2	59.64337	0.002227397				
188.3	59.66334	0.002229452				
188.4	59.68336	0.002231482				
188.5	59.70335	0.002233493				
188.6	59.72334	0.002235598				
188.7	59.74337	0.002237588				
188.8	59.76338	0.002239856				
188.9	59.78339	0.002241576				
189	59.80339	0.002243919				
189.1	59.82342	0.002245811				
189.2	59.84343	0.002247932				
189.3	59.86345	0.002249847				
189.4	59.88349	0.002252124				
189.5	59.90352	0.002254139				
189.6	59.92354	0.00225617				
189.7	59.94356	0.002258206				
189.8	59.96355	0.002260242				
189.9	59.98355	0.002262489				
190	60.00356	0.002264235				
190.1	60.02358	0.002266855				
190.2	60.04356	0.002268624				
190.3	60.06357	0.002270874				
190.4	60.08358	0.002272812				
190.5	60.10358	0.002275111				
190.6	60.12358	0.002277059				
190.7	60.14358	0.002279154				
190.8	60.16358	0.002281407				
190.9	60.18358	0.002283306				
191	60.20358	0.00228562				
191.1	60.22358	0.002287583				
191.2	60.24356	0.002289944				
191.3	60.26353	0.002291793				
191.4	60.28352	0.002294241				
191.5	60.3035	0.0022962				
191.6	60.32349	0.002298469				
191.7	60.34346	0.002300473				
191.8	60.36346	0.002302826				
191.9	60.38347	0.002305021				
192	60.40343	0.002306917				
192.1	60.42342	0.0023094				
192.2	60.44341	0.002311236				
192.3	60.46341	0.002313654				
192.4	60.48342	0.002315649				
192.5	60.50342	0.002317876				
192.6	60.52343	0.002319946				
192.7	60.54344	0.002322321				
192.8	60.56344	0.002324391				
192.9	60.58341	0.002326606				
193	60.60341	0.002328741				
193.1	60.62343	0.002330923				
193.2	60.64342	0.002333193				
193.3	60.66342	0.002335141				
193.4	60.68343	0.002337597				
193.5	60.70343	0.002339444				
193.6	60.72346	0.002341951				
193.7	60.74347	0.002343832				
193.8	60.76349	0.002346319				
193.9	60.7835	0.002348602				
194	60.80352	0.002350488				
194.1	60.82355	0.002353013				
194.2	60.84357	0.002355069				
194.3	60.86358	0.002357368				
194.4	60.88357	0.002359406				
194.5	60.90359	0.002361742				
194.6	60.9236	0.002363572				
194.7	60.94361	0.002365959				
194.8	60.96362	0.002368177				
194.9	60.98367	0.002370372				
195	61.00369	0.002372436				
195.1	61.02371	0.002374716				
195.2	61.04377	0.002376961				
195.3	61.06382	0.002379038				
195.4	61.08385	0.002381347				
195.5	61.10389	0.002383495				
195.6	61.12391	0.002385697				
195.7	61.14395	0.002387941				
195.8	61.16397	0.002390083				
195.9	61.18403	0.002392152				
196	61.20406	0.00239467				
196.1	61.22411	0.00239684				
196.2	61.24416	0.002398873				
196.3	61.26421	0.002401374				
196.4	61.28429	0.00240342				
196.5	61.30436	0.002405772				
196.6	61.32443	0.002407864				
196.7	61.3445	0.002410274				
196.8	61.36458	0.002412384				
196.9	61.38465	0.002414781				
197	61.40472	0.002416806				
197.1	61.4248	0.002419072				
197.2	61.44485	0.002421358				
197.3	61.46491	0.002423547				
197.4	61.48498	0.002425917				
197.5	61.50506	0.002428021				
197.6	61.52511	0.002430391				
197.7	61.54518	0.002432577				
197.8	61.56524	0.002434966				
197.9	61.58528	0.002436944				
198	61.60535	0.002439404				
198.1	61.62537	0.002441617				
198.2	61.64539	0.002443869				
198.3	61.66541	0.002446159				
198.4	61.68541	0.002448441				
198.5	61.70541	0.002450814				
198.6	61.72541	0.002453041				
198.7	61.74541	0.002455299				
198.8	61.76543	0.002457419				
198.9	61.78541	0.002459958				
199	61.80539	0.002461967				
199.1	61.82536	0.002464436				
199.2	61.84532	0.002466487				
199.3	61.86528	0.002469013				
199.4	61.88521	0.002471056				
199.5	61.90513	0.002473465				
199.6	61.92516	0.002475651				
199.7	61.94517	0.002477826				
199.8	61.96533	0.002480327				
199.9	61.98511	0.002482403				
