#EXPORTTYPE:DATA SINGLE							
#FILE:C.ngb-sla							
#FORMAT:NETZSCH5							
#FTYPE:ANSI							
#IDENTITY:C-2							
#DECIMAL:POINT							
#SEPARATOR:SEMICOLON							
#MTYPE:DIL							
#INSTRUMENT:NETZSCH DIL 402SE							
#PROJECT:1							
#DATE/TIME:10.12.2019 18:53							
#CORR. FILE:							
#TEMPCAL:TCALZERO.TMX							
#LABORATORY:1							
#OPERATOR:1							
#REMARK:							
#SAMPLE:C-2							
#SAMPLE LENGTH /mm:23.86							
#MATERIAL:Ã’¥…							
#MEASMODE:Standard Expansion							
#M.RANGE /¶Ãm:20000							
#CORR. CODE:010							
#RANGE:-110°„C/5.0(K/min)/200°„C							
#SEGMENT:S1/1							
#SEG. 1:-110°„C/5.0(K/min)/200°„C							
							
##Temp./°„C	Time/min	dL/Lo					
-100	2.20313	-0.00012885					
-99.9	2.22261	-0.000128949					
-99.8	2.242	-0.000128963					
-99.7	2.26129	-0.000128984					
-99.6	2.28049	-0.000128973					
-99.5	2.29963	-0.000129026					
-99.4	2.3187	-0.000128983					
-99.3	2.3377	-0.000129031					
-99.2	2.35662	-0.000128987					
-99.1	2.37549	-0.000128976					
-99	2.39434	-0.000128937					
-98.9	2.41318	-0.000128899					
-98.8	2.432	-0.00012874					
-98.7	2.45074	-0.000128773					
-98.6	2.46949	-0.000128674					
-98.5	2.48824	-0.000128646					
-98.4	2.50699	-0.000128397					
-98.3	2.52572	-0.000128403					
-98.2	2.54447	-0.000128247					
-98.1	2.56319	-0.000128089					
-98	2.58193	-0.000128022					
-97.9	2.60071	-0.000127804					
-97.8	2.61947	-0.00012769					
-97.7	2.6383	-0.000127548					
-97.6	2.65714	-0.000127337					
-97.5	2.676	-0.000127202					
-97.4	2.69491	-0.000126958					
-97.3	2.71388	-0.000126787					
-97.2	2.73291	-0.000126559					
-97.1	2.75197	-0.000126419					
-97	2.77108	-0.00012612					
-96.9	2.79023	-0.000125974					
-96.8	2.80942	-0.000125724					
-96.7	2.82864	-0.000125429					
-96.6	2.84792	-0.000125182					
-96.5	2.86729	-0.000124908					
-96.4	2.88668	-0.000124648					
-96.3	2.90613	-0.000124338					
-96.2	2.9256	-0.000123982					
-96.1	2.94513	-0.000123716					
-96	2.96468	-0.000123441					
-95.9	2.98431	-0.000123145					
-95.8	3.00398	-0.000122729					
-95.7	3.02367	-0.000122432					
-95.6	3.04341	-0.000122114					
-95.5	3.0632	-0.000121694					
-95.4	3.08304	-0.000121353					
-95.3	3.10289	-0.000120967					
-95.2	3.12276	-0.000120612					
-95.1	3.14264	-0.000120136					
-95	3.16259	-0.00011974					
-94.9	3.18252	-0.00011936					
-94.8	3.20253	-0.000118983					
-94.7	3.22254	-0.000118576					
-94.6	3.24258	-0.000118132					
-94.5	3.26261	-0.000117664					
-94.4	3.28266	-0.000117172					
-94.3	3.30275	-0.00011681					
-94.2	3.32282	-0.000116307					
-94.1	3.34291	-0.000115792					
-94	3.36301	-0.000115394					
-93.9	3.38311	-0.000114868					
-93.8	3.40322	-0.000114436					
-93.7	3.4233	-0.000113843					
-93.6	3.44341	-0.000113399					
-93.5	3.46349	-0.000112921					
-93.4	3.48356	-0.000112405					
-93.3	3.50363	-0.000111856					
-93.2	3.52366	-0.000111382					
-93.1	3.54371	-0.000110832					
-93	3.56375	-0.000110359					
-92.9	3.58379	-0.000109722					
-92.8	3.60385	-0.000109121					
-92.7	3.62388	-0.00010867					
-92.6	3.64388	-0.000108013					
-92.5	3.66388	-0.000107657					
-92.4	3.68389	-0.000106875					
-92.3	3.70386	-0.000106401					
-92.2	3.72379	-0.0001064					
-92.1	3.74374	-0.000106023					
-92	3.76367	-0.000105405					
-91.9	3.78358	-0.000104911					
-91.8	3.80349	-0.000104343					
-91.7	3.82338	-0.000103707					
-91.6	3.84329	-0.000103129					
-91.5	3.86316	-0.000102489					
-91.4	3.88303	-0.000101972					
-91.3	3.90291	-0.0001013					
-91.2	3.9228	-0.000100709					
-91.1	3.94272	-0.000100071					
-91	3.96261	-9.94766E-05					
-90.9	3.98252	-9.87651E-05					
-90.8	4.00238	-9.81741E-05					
-90.7	4.02222	-9.75073E-05					
-90.6	4.04207	-9.68333E-05					
-90.5	4.06193	-9.62116E-05					
-90.4	4.08179	-9.55278E-05					
-90.3	4.10163	-9.49317E-05					
-90.2	4.1215	-9.41839E-05					
-90.1	4.1414	-9.35615E-05					
-90	4.16126	-9.28522E-05					
-89.9	4.18114	-9.21666E-05					
-89.8	4.20103	-9.15962E-05					
-89.7	4.22096	-9.08511E-05					
-89.6	4.24088	-9.01658E-05					
-89.5	4.26077	-8.94939E-05					
-89.4	4.2807	-8.87785E-05					
-89.3	4.30063	-8.80338E-05					
-89.2	4.32055	-8.73512E-05					
-89.1	4.34043	-8.66544E-05					
-89	4.36033	-8.59208E-05					
-88.9	4.38025	-8.52279E-05					
-88.8	4.40012	-8.4492E-05					
-88.7	4.42006	-8.37045E-05					
-88.6	4.43998	-8.30202E-05					
-88.5	4.4599	-8.22565E-05					
-88.4	4.47984	-8.15486E-05					
-88.3	4.49976	-8.07616E-05					
-88.2	4.51969	-8.00759E-05					
-88.1	4.5396	-7.93226E-05					
-88	4.55952	-7.85217E-05					
-87.9	4.57946	-7.77832E-05					
-87.8	4.59942	-7.70462E-05					
-87.7	4.61934	-7.62712E-05					
-87.6	4.63925	-7.54899E-05					
-87.5	4.65917	-7.48246E-05					
-87.4	4.6791	-7.38139E-05					
-87.3	4.69902	-7.32283E-05					
-87.2	4.71891	-7.24156E-05					
-87.1	4.73882	-7.16646E-05					
-87	4.75873	-7.07774E-05					
-86.9	4.77861	-7.01367E-05					
-86.8	4.79851	-6.93567E-05					
-86.7	4.81842	-6.85205E-05					
-86.6	4.83829	-6.76796E-05					
-86.5	4.85819	-6.68379E-05					
-86.4	4.87807	-6.60862E-05					
-86.3	4.89793	-6.52239E-05					
-86.2	4.9178	-6.44933E-05					
-86.1	4.93766	-6.35515E-05					
-86	4.95752	-6.28167E-05					
-85.9	4.97736	-6.1954E-05					
-85.8	4.9972	-6.11848E-05					
-85.7	5.017	-6.02887E-05					
-85.6	5.03684	-5.95054E-05					
-85.5	5.05666	-5.87137E-05					
-85.4	5.07644	-5.77814E-05					
-85.3	5.09626	-5.70103E-05					
-85.2	5.11606	-5.61961E-05					
-85.1	5.13587	-5.53395E-05					
-85	5.15565	-5.44819E-05					
-84.9	5.17543	-5.3588E-05					
-84.8	5.19525	-5.28097E-05					
-84.7	5.21502	-5.20678E-05					
-84.6	5.2348	-5.11435E-05					
-84.5	5.25456	-5.0225E-05					
-84.4	5.27433	-4.94184E-05					
-84.3	5.2941	-4.85527E-05					
-84.2	5.31386	-4.77555E-05					
-84.1	5.33363	-4.68402E-05					
-84	5.35337	-4.60604E-05					
-83.9	5.37314	-4.51727E-05					
-83.8	5.3929	-4.43387E-05					
-83.7	5.41264	-4.34617E-05					
-83.6	5.43242	-4.25857E-05					
-83.5	5.45217	-4.16997E-05					
-83.4	5.47192	-4.09068E-05					
-83.3	5.49169	-3.9984E-05					
-83.2	5.51144	-3.91917E-05					
-83.1	5.53121	-3.83042E-05					
-83	5.55098	-3.74982E-05					
-82.9	5.57078	-3.6502E-05					
-82.8	5.59053	-3.57559E-05					
-82.7	5.6103	-3.48401E-05					
-82.6	5.63009	-3.39294E-05					
-82.5	5.64988	-3.31055E-05					
-82.4	5.66967	-3.21434E-05					
-82.3	5.68944	-3.13838E-05					
-82.2	5.70919	-3.04971E-05					
-82.1	5.72897	-2.9628E-05					
-82	5.74873	-2.86545E-05					
-81.9	5.76852	-2.7831E-05					
-81.8	5.78828	-2.69052E-05					
-81.7	5.80803	-2.60626E-05					
-81.6	5.82779	-2.51488E-05					
-81.5	5.84754	-2.43516E-05					
-81.4	5.86732	-2.35133E-05					
-81.3	5.88709	-2.25564E-05					
-81.2	5.90686	-2.17124E-05					
-81.1	5.92661	-2.08152E-05					
-81	5.94635	-2.00789E-05					
-80.9	5.96609	-1.91089E-05					
-80.8	5.98581	-1.82023E-05					
-80.7	6.00556	-1.73156E-05					
-80.6	6.02528	-1.65214E-05					
-80.5	6.045	-1.56405E-05					
-80.4	6.06471	-1.4659E-05					
-80.3	6.08442	-1.37976E-05					
-80.2	6.10414	-1.29902E-05					
-80.1	6.12387	-1.20246E-05					
-80	6.14362	-1.11185E-05					
-79.9	6.16335	-1.02439E-05					
-79.8	6.18306	-9.36765E-06					
-79.7	6.20277	-8.47868E-06					
-79.6	6.22248	-7.56733E-06					
-79.5	6.24223	-6.71411E-06					
-79.4	6.26193	-5.82799E-06					
-79.3	6.28163	-4.946E-06					
-79.2	6.30135	-4.01181E-06					
-79.1	6.32105	-3.10386E-06					
-79	6.34076	-2.07979E-06					
-78.9	6.36046	-1.23445E-06					
-78.8	6.38014	-2.46388E-07					
-78.7	6.39984	6.42219E-07					
-78.6	6.41952	1.57583E-06					
-78.5	6.43922	2.56035E-06					
-78.4	6.45889	3.4622E-06					
-78.3	6.47857	4.48099E-06					
-78.2	6.49824	5.33076E-06					
-78.1	6.51792	6.36234E-06					
-78	6.53759	7.17592E-06					
-77.9	6.55722	8.19884E-06					
-77.8	6.57687	9.02796E-06					
-77.7	6.59653	1.00434E-05					
-77.6	6.61621	1.09985E-05					
-77.5	6.63588	1.19341E-05					
-77.4	6.65552	1.29204E-05					
-77.3	6.67518	1.38506E-05					
-77.2	6.6948	1.48398E-05					
-77.1	6.71443	1.57794E-05					
-77	6.73408	1.67933E-05					
-76.9	6.75374	1.77004E-05					
-76.8	6.77338	1.86649E-05					
-76.7	6.79306	1.96168E-05					
-76.6	6.81272	2.0663E-05					
-76.5	6.83239	2.15898E-05					
-76.4	6.85206	2.24601E-05					
-76.3	6.87176	2.35239E-05					
-76.2	6.89144	2.45131E-05					
-76.1	6.91114	2.54176E-05					
-76	6.93082	2.63572E-05					
-75.9	6.9505	2.73281E-05					
-75.8	6.97021	2.84067E-05					
-75.7	6.98994	2.9302E-05					
-75.6	7.00965	3.02368E-05					
-75.5	7.02936	0.000031259					
-75.4	7.04906	3.21715E-05					
-75.3	7.06876	3.32219E-05					
-75.2	7.08848	3.41384E-05					
-75.1	7.10819	3.51415E-05					
-75	7.12793	3.60072E-05					
-74.9	7.14763	3.71132E-05					
-74.8	7.16735	3.80067E-05					
-74.7	7.18708	3.8996E-05					
-74.6	7.20679	3.99308E-05					
-74.5	7.22652	4.09656E-05					
-74.4	7.24625	4.19083E-05					
-74.3	7.26598	4.28116E-05					
-74.2	7.28571	4.38354E-05					
-74.1	7.30545	4.48193E-05					
-74	7.32516	4.58306E-05					
-73.9	7.3449	4.67121E-05					
-73.8	7.36464	4.77265E-05					
-73.7	7.38437	4.86788E-05					
-73.6	7.40409	4.96765E-05					
-73.5	7.42384	5.06342E-05					
-73.4	7.44357	5.16616E-05					
-73.3	7.46331	5.26607E-05					
-73.2	7.48306	5.36778E-05					
-73.1	7.50283	5.46918E-05					
-73	7.5226	5.56024E-05					
-72.9	7.54238	5.66543E-05					
-72.8	7.56214	5.75227E-05					
-72.7	7.58188	5.85974E-05					
-72.6	7.60162	5.95169E-05					
-72.5	7.62136	6.06302E-05					
-72.4	7.64108	6.15274E-05					
-72.3	7.66083	6.25382E-05					
-72.2	7.68055	6.35415E-05					
-72.1	7.7003	6.44792E-05					
-72	7.72002	6.55111E-05					
-71.9	7.73977	6.65241E-05					
-71.8	7.7595	6.74787E-05					
-71.7	7.77924	6.8469E-05					
-71.6	7.79899	6.94472E-05					
-71.5	7.81873	7.05176E-05					
-71.4	7.83845	7.14616E-05					
-71.3	7.85819	7.24834E-05					
-71.2	7.87791	7.34888E-05					
-71.1	7.89764	7.44126E-05					
-71	7.91737	7.5493E-05					
-70.9	7.93709	7.64409E-05					
-70.8	7.95681	7.75187E-05					
-70.7	7.97652	7.85184E-05					
-70.6	7.99626	7.95333E-05					
-70.5	8.01601	8.04678E-05					
-70.4	8.03575	8.15619E-05					
-70.3	8.0555	8.25308E-05					
-70.2	8.07524	8.35573E-05					
-70.1	8.09498	8.44968E-05					
-70	8.11469	8.54006E-05					
-69.9	8.13445	8.64788E-05					
-69.8	8.15418	8.74923E-05					
-69.7	8.17392	8.85282E-05					
-69.6	8.19366	8.95011E-05					
-69.5	8.21337	9.05804E-05					
-69.4	8.2331	9.15453E-05					
-69.3	8.25283	9.25079E-05					
-69.2	8.27256	9.35599E-05					
-69.1	8.29231	9.45685E-05					
-69	8.31203	9.55582E-05					
-68.9	8.33174	9.66207E-05					
-68.8	8.35147	9.76122E-05					
-68.7	8.37119	9.85907E-05					
-68.6	8.39092	9.96195E-05					
-68.5	8.41064	0.0001007					
-68.4	8.43034	0.000101613					
-68.3	8.45008	0.000102657					
-68.2	8.46981	0.000103777					
-68.1	8.48952	0.000104811					
-68	8.50927	0.000105801					
-67.9	8.52903	0.000106764					
-67.8	8.54875	0.000107818					
-67.7	8.5685	0.000108803					
-67.6	8.58826	0.000109869					
-67.5	8.60802	0.000110792					
-67.4	8.62779	0.000111937					
-67.3	8.64755	0.000112904					
-67.2	8.66732	0.000113956					
-67.1	8.68708	0.000114951					
-67	8.70686	0.000115936					
-66.9	8.72668	0.000117001					
-66.8	8.74649	0.00011796					
-66.7	8.7663	0.000119007					
-66.6	8.78611	0.000119939					
-66.5	8.80591	0.000121057					
-66.4	8.82573	0.000122005					
-66.3	8.84557	0.000122983					
-66.2	8.8654	0.000123986					
-66.1	8.88522	0.000125049					
-66	8.90504	0.000126057					
-65.9	8.92485	0.000127037					
-65.8	8.94467	0.000128067					
-65.7	8.9645	0.000129126					
-65.6	8.98432	0.000130111					
-65.5	9.00413	0.000131071					
-65.4	9.02394	0.000132136					
-65.3	9.04376	0.000133062					
-65.2	9.06356	0.000134153					
-65.1	9.08338	0.00013516					
-65	9.10317	0.000136174					
-64.9	9.12294	0.00013721					
-64.8	9.14273	0.000138273					
-64.7	9.16249	0.000139237					
-64.6	9.18228	0.000140306					
-64.5	9.20207	0.00014129					
-64.4	9.22186	0.000142312					
-64.3	9.24165	0.000143311					
-64.2	9.26141	0.00014433					
-64.1	9.28119	0.000145372					
-64	9.30097	0.000146366					
-63.9	9.32075	0.000147473					
-63.8	9.34055	0.000148394					
-63.7	9.36034	0.000149458					
-63.6	9.38012	0.00015044					
-63.5	9.3999	0.000151524					
-63.4	9.41968	0.000152456					
-63.3	9.43946	0.000153549					
-63.2	9.45926	0.000154486					
-63.1	9.47903	0.000155532					
-63	9.49883	0.000156553					
-62.9	9.51861	0.000157474					
-62.8	9.53841	0.000158597					
-62.7	9.55816	0.000159613					
-62.6	9.57794	0.000160677					
-62.5	9.59769	0.000161536					
-62.4	9.61745	0.000162794					
-62.3	9.63723	0.000163708					
-62.2	9.65698	0.000164758					
-62.1	9.67677	0.000165727					
-62	9.69653	0.00016679					
-61.9	9.71631	0.0001678					
-61.8	9.73608	0.000168817					
-61.7	9.75581	0.000169895					
-61.6	9.77558	0.000170908					
-61.5	9.79537	0.000171953					
-61.4	9.81512	0.000172896					
-61.3	9.83489	0.000173994					
-61.2	9.85467	0.00017497					
-61.1	9.87443	0.000176096					
-61	9.89423	0.000177119					
-60.9	9.91402	0.000178029					
-60.8	9.93381	0.000179152					
-60.7	9.95364	0.000180203					
-60.6	9.97349	0.000181221					
-60.5	9.99333	0.000182258					
-60.4	10.01317	0.000183295					
-60.3	10.033	0.000184373					
-60.2	10.05283	0.000185451					
-60.1	10.07265	0.000186417					
-60	10.09248	0.000187444					
-59.9	10.11235	0.000188553					
-59.8	10.13219	0.000189612					
-59.7	10.15202	0.000190654					
-59.6	10.17186	0.00019172					
-59.5	10.19169	0.000192741					
-59.4	10.21151	0.000193876					
-59.3	10.23138	0.000194829					
-59.2	10.25122	0.000195912					
-59.1	10.27106	0.000196972					
-59	10.2909	0.000198054					
-58.9	10.31072	0.000199114					
-58.8	10.33055	0.000200172					
-58.7	10.35039	0.000201212					
-58.6	10.37017	0.000202288					
-58.5	10.38996	0.000203392					
-58.4	10.40977	0.000204319					
-58.3	10.42959	0.000205439					
-58.2	10.4494	0.000206475					
-58.1	10.46923	0.000207553					
-58	10.48906	0.000208567					
-57.9	10.50886	0.000209585					
-57.8	10.52863	0.000210705					
-57.7	10.54842	0.000211699					
-57.6	10.56823	0.000212825					
-57.5	10.58806	0.000213698					
-57.4	10.60786	0.000214915					
-57.3	10.62767	0.000215849					
-57.2	10.64746	0.000216984					
-57.1	10.66725	0.000217961					
-57	10.68703	0.000219068					
-56.9	10.70682	0.000220075					
-56.8	10.72662	0.000221016					
-56.7	10.7464	0.000222105					
-56.6	10.76618	0.000223106					
-56.5	10.78598	0.000224259					
-56.4	10.80574	0.00022519					
-56.3	10.82552	0.000226203					
-56.2	10.84531	0.000227252					
-56.1	10.86509	0.000228272					
-56	10.88485	0.000229385					
-55.9	10.90461	0.000230403					
-55.8	10.92437	0.000231352					
-55.7	10.94415	0.000232482					
-55.6	10.96388	0.000233409					
-55.5	10.98363	0.00023451					
-55.4	11.00337	0.000235438					
-55.3	11.02312	0.000236499					
-55.2	11.04287	0.000237512					
-55.1	11.06263	0.000238603					
-55	11.08238	0.000239559					
-54.9	11.10213	0.000240523					
-54.8	11.12187	0.000241683					
-54.7	11.14162	0.000242666					
-54.6	11.16137	0.000243747					
-54.5	11.18112	0.000244795					
-54.4	11.20086	0.000245863					
-54.3	11.22065	0.000246876					
-54.2	11.24039	0.000247937					
-54.1	11.26011	0.000248986					
-54	11.27987	0.000250092					
-53.9	11.2996	0.000251097					
-53.8	11.31936	0.000252202					
-53.7	11.33912	0.000253272					
-53.6	11.35885	0.000254309					
-53.5	11.37862	0.000255449					
-53.4	11.39839	0.0002564					
-53.3	11.41816	0.000257477					
-53.2	11.4379	0.000258497					
-53.1	11.45766	0.000259704					
-53	11.47739	0.000260783					
-52.9	11.49713	0.000261708					
-52.8	11.51687	0.000262799					
-52.7	11.5366	0.000263933					
-52.6	11.55635	0.000265012					
-52.5	11.57609	0.000265966					
-52.4	11.59582	0.000267063					
-52.3	11.61557	0.000268181					
-52.2	11.63529	0.000269217					
-52.1	11.65503	0.000270258					
-52	11.67477	0.000271365					
-51.9	11.69451	0.000272379					
-51.8	11.71423	0.000273433					
-51.7	11.73398	0.000274539					
-51.6	11.75371	0.00027554					
-51.5	11.77345	0.000276694					
-51.4	11.79319	0.000277783					
-51.3	11.81291	0.00027876					
-51.2	11.83265	0.000279858					
-51.1	11.85238	0.000280869					
-51	11.87213	0.000282014					
-50.9	11.89192	0.000283034					
-50.8	11.91169	0.000284096					
-50.7	11.93147	0.000285202					
-50.6	11.95124	0.000286167					
-50.5	11.971	0.000287287					
-50.4	11.99075	0.000288304					
-50.3	12.01054	0.000289438					
-50.2	12.03031	0.000290453					
-50.1	12.05006	0.000291615					
-50	12.06984	0.000292635					
-49.9	12.0896	0.000293644					
-49.8	12.10938	0.000294749					
-49.7	12.12918	0.000295802					
-49.6	12.14893	0.000296805					
-49.5	12.16871	0.000297877					
-49.4	12.18849	0.00029904					
-49.3	12.20828	0.000299956					
-49.2	12.22806	0.000301113					
-49.1	12.24781	0.000302065					
-49	12.26759	0.000303234					
-48.9	12.28737	0.000304238					
-48.8	12.30713	0.000305353					
-48.7	12.32688	0.000306327					
-48.6	12.34663	0.000307513					
-48.5	12.36639	0.00030858					
-48.4	12.38614	0.00030951					
-48.3	12.40587	0.000310638					
-48.2	12.42559	0.000311669					
-48.1	12.44533	0.000312735					
-48	12.46508	0.000313826					
-47.9	12.48481	0.000314922					
-47.8	12.50455	0.000315938					
-47.7	12.52428	0.000317038					
-47.6	12.54402	0.000318072					
-47.5	12.56376	0.000319118					
-47.4	12.5835	0.000320164					
-47.3	12.60323	0.000321249					
-47.2	12.62295	0.000322258					
-47.1	12.64269	0.000323316					
-47	12.66244	0.000324384					
-46.9	12.68216	0.000325494					
-46.8	12.70188	0.00032652					
-46.7	12.72162	0.00032752					
-46.6	12.74138	0.000328621					
-46.5	12.76113	0.000329687					
-46.4	12.78085	0.000330759					
-46.3	12.80059	0.000331726					
-46.2	12.82032	0.000332858					
-46.1	12.84008	0.000333887					
-46	12.85981	0.000335005					
-45.9	12.87957	0.000335963					
-45.8	12.89932	0.000337092					
-45.7	12.91908	0.000338039					
-45.6	12.93882	0.000339205					
-45.5	12.95858	0.000340289					
-45.4	12.97834	0.00034123					
-45.3	12.99809	0.000342371					
-45.2	13.01787	0.000343467					
-45.1	13.03765	0.000344593					
-45	13.05742	0.00034551					
-44.9	13.0772	0.000346627					
-44.8	13.09698	0.000347576					
-44.7	13.11676	0.00034872					
-44.6	13.13653	0.00034971					
-44.5	13.15628	0.000350804					
-44.4	13.17605	0.000351881					
-44.3	13.19587	0.000352978					
-44.2	13.21566	0.000354004					
-44.1	13.23549	0.000354991					
-44	13.25529	0.000356135					
-43.9	13.27506	0.000357134					
-43.8	13.29487	0.000358259					
-43.7	13.31468	0.000359267					
-43.6	13.3345	0.000360393					
-43.5	13.35431	0.000361418					
-43.4	13.3741	0.000362516					
-43.3	13.3939	0.00036351					
-43.2	13.41372	0.000364607					
-43.1	13.43356	0.000365741					
-43	13.45341	0.000366782					
-42.9	13.47325	0.000367832					
-42.8	13.49308	0.000368834					
-42.7	13.51292	0.000369904					
-42.6	13.53276	0.000370928					
-42.5	13.55261	0.000372					
-42.4	13.57246	0.000372982					
-42.3	13.5923	0.000374051					
-42.2	13.61214	0.000375111					
-42.1	13.63202	0.000376138					
-42	13.65186	0.0003772					
-41.9	13.67173	0.000378314					
-41.8	13.6916	0.000379305					
-41.7	13.71147	0.000380335					
-41.6	13.73134	0.000381358					
-41.5	13.75121	0.000382429					
-41.4	13.77114	0.000383541					
-41.3	13.79103	0.000384472					
-41.2	13.81091	0.000385607					
-41.1	13.83082	0.000386541					
-41	13.85069	0.000387684					
-40.9	13.87054	0.000388677					
-40.8	13.89045	0.000389815					
-40.7	13.91034	0.000390807					
-40.6	13.93026	0.000391913					
-40.5	13.95016	0.000392965					
-40.4	13.97014	0.000393916					
-40.3	13.99011	0.000395029					
-40.2	14.01008	0.000396036					
-40.1	14.03007	0.000397146					
-40	14.05005	0.00039809					
-39.9	14.07006	0.000399228					
-39.8	14.09007	0.000400164					
-39.7	14.11012	0.000401387					
-39.6	14.13017	0.000402408					
-39.5	14.15023	0.000403394					
-39.4	14.1703	0.000404506					
-39.3	14.19039	0.000405597					
-39.2	14.21049	0.00040661					
-39.1	14.23061	0.000407606					
-39	14.25072	0.000408733					
-38.9	14.27086	0.000409727					
-38.8	14.29103	0.000410907					
-38.7	14.31117	0.000411809					
-38.6	14.33133	0.000412947					
-38.5	14.35151	0.000414055					
-38.4	14.37166	0.000415013					
-38.3	14.39178	0.000416062					
-38.2	14.41194	0.000417171					
-38.1	14.43206	0.000418273					
-38	14.45219	0.000419216					
-37.9	14.47233	0.000420388					
-37.8	14.49244	0.000421345					
-37.7	14.51254	0.000422407					
-37.6	14.53265	0.000423466					
-37.5	14.55272	0.000424589					
-37.4	14.5728	0.000425548					
-37.3	14.59286	0.000426702					
-37.2	14.61287	0.000427751					
-37.1	14.63288	0.000428739					
-37	14.65287	0.000429862					
-36.9	14.67283	0.000430963					
-36.8	14.69279	0.000432019					
-36.7	14.71269	0.000433092					
-36.6	14.73259	0.000434168					
-36.5	14.75244	0.000435223					
-36.4	14.77226	0.000436311					
-36.3	14.79207	0.000437378					
-36.2	14.81187	0.000438447					
-36.1	14.83163	0.00043948					
-36	14.85137	0.000440631					
-35.9	14.87107	0.000441638					
-35.8	14.89072	0.000442719					
-35.7	14.91033	0.000443765					
-35.6	14.92992	0.000444914					
-35.5	14.94945	0.000445916					
-35.4	14.96893	0.000446991					
-35.3	14.98837	0.000448028					
-35.2	15.00777	0.000449035					
-35.1	15.02713	0.000450163					
-35	15.04645	0.000451099					
-34.9	15.06572	0.000452248					
-34.8	15.08496	0.000453201					
-34.7	15.10414	0.000454396					
-34.6	15.12332	0.000455311					
-34.5	15.14245	0.000456358					
-34.4	15.16155	0.000457313					
-34.3	15.18066	0.000458351					
-34.2	15.19974	0.000459381					
-34.1	15.21881	0.000460416					
-34	15.23788	0.000461444					
-33.9	15.25693	0.000462425					
-33.8	15.27602	0.000463436					
-33.7	15.29515	0.000464538					
-33.6	15.31431	0.000465404					
-33.5	15.33352	0.000466549					
-33.4	15.35277	0.000467507					
-33.3	15.37207	0.000468471					
-33.2	15.39143	0.000469524					
-33.1	15.41084	0.000470527					
-33	15.43033	0.000471546					
-32.9	15.44991	0.00047249					
-32.8	15.46954	0.000473545					
-32.7	15.48925	0.000474513					
-32.6	15.50904	0.000475674					
-32.5	15.52889	0.000476693					
-32.4	15.54882	0.000477646					
-32.3	15.56883	0.000478688					
-32.2	15.58888	0.000479772					
-32.1	15.60902	0.000480804					
-32	15.6292	0.00048186					
-31.9	15.64944	0.000482902					
-31.8	15.66977	0.000484016					
-31.7	15.69011	0.000484962					
-31.6	15.71046	0.000485997					
-31.5	15.73084	0.000487177					
-31.4	15.75122	0.00048816					
-31.3	15.77159	0.000489305					
-31.2	15.79197	0.000490303					
-31.1	15.81235	0.000491334					
-31	15.83273	0.000492495					
-30.9	15.85308	0.000493495					
-30.8	15.87342	0.000494675					
-30.7	15.89373	0.000495647					
-30.6	15.91405	0.000496827					
-30.5	15.93431	0.00049788					
-30.4	15.95456	0.000498933					
-30.3	15.97481	0.000500035					
-30.2	15.99504	0.000501175					
-30.1	16.01524	0.000502299					
-30	16.03541	0.000503234					
-29.9	16.05553	0.000504413					
-29.8	16.07563	0.000505438					
-29.7	16.0957	0.000506616					
-29.6	16.11573	0.000507559					
-29.5	16.13575	0.000508744					
-29.4	16.15574	0.000509769					
-29.3	16.17573	0.000510804					
-29.2	16.19571	0.000511858					
-29.1	16.21569	0.000512957					
-29	16.23564	0.000514048					
-28.9	16.25557	0.000515035					
-28.8	16.27546	0.000516188					
-28.7	16.29537	0.000517109					
-28.6	16.31525	0.000518321					
-28.5	16.33513	0.00051935					
-28.4	16.35503	0.000520461					
-28.3	16.3749	0.000521426					
-28.2	16.39477	0.000522647					
-28.1	16.41465	0.000523626					
-28	16.43451	0.000524668					
-27.9	16.45437	0.000525741					
-27.8	16.47424	0.000526807					
-27.7	16.4941	0.000527888					
-27.6	16.51398	0.000528893					
-27.5	16.53387	0.00052996					
-27.4	16.55375	0.00053101					
-27.3	16.57363	0.000532071					
-27.2	16.59351	0.000533168					
-27.1	16.61338	0.000534222					
-27	16.63325	0.000535252					
-26.9	16.65315	0.000536336					
-26.8	16.67303	0.000537427					
-26.7	16.69295	0.000538538					
-26.6	16.71287	0.000539482					
-26.5	16.73277	0.000540692					
-26.4	16.75272	0.000541701					
-26.3	16.77263	0.000542771					
-26.2	16.79257	0.000543805					
-26.1	16.81248	0.000544843					
-26	16.83237	0.000545995					
-25.9	16.8523	0.000546912					
-25.8	16.87221	0.000548126					
-25.7	16.89214	0.000549118					
-25.6	16.9121	0.000550228					
-25.5	16.93203	0.000551241					
-25.4	16.95195	0.000552304					
-25.3	16.97191	0.000553394					
-25.2	16.99185	0.000554413					
-25.1	17.01181	0.000555525					
-25	17.03178	0.000556449					
-24.9	17.05174	0.000557611					
-24.8	17.07169	0.000558588					
-24.7	17.09168	0.000559816					
-24.6	17.11164	0.000560703					
-24.5	17.13159	0.000561851					
-24.4	17.15155	0.000562822					
-24.3	17.1715	0.000563973					
-24.2	17.19148	0.00056502					
-24.1	17.21147	0.000566015					
-24	17.23145	0.000567159					
-23.9	17.25144	0.000568103					
-23.8	17.27142	0.000569244					
-23.7	17.29141	0.000570218					
-23.6	17.3114	0.000571371					
-23.5	17.33137	0.000572293					
-23.4	17.35134	0.000573533					
-23.3	17.3713	0.000574398					
-23.2	17.39126	0.000575526					
-23.1	17.41124	0.000576593					
-23	17.43118	0.000577623					
-22.9	17.45113	0.000578675					
-22.8	17.47108	0.00057972					
-22.7	17.49106	0.000580767					
-22.6	17.51098	0.000581747					
-22.5	17.53096	0.000582917					
-22.4	17.55091	0.000583854					
-22.3	17.57086	0.000584994					
-22.2	17.5908	0.00058606					
-22.1	17.61073	0.000586975					
-22	17.63064	0.000588144					
-21.9	17.65057	0.000589051					
-21.8	17.6705	0.000590198					
-21.7	17.69039	0.000591149					
-21.6	17.71032	0.000592182					
-21.5	17.73024	0.000593206					
-21.4	17.75013	0.000594347					
-21.3	17.77004	0.00059538					
-21.2	17.78996	0.000596363					
-21.1	17.80987	0.000597367					
-21	17.82976	0.000598446					
-20.9	17.84966	0.000599481					
-20.8	17.86955	0.000600455					
-20.7	17.88945	0.000601484					
-20.6	17.90934	0.000602588					
-20.5	17.92925	0.000603628					
-20.4	17.94915	0.000604575					
-20.3	17.96907	0.000605647					
-20.2	17.98899	0.000606704					
-20.1	18.00891	0.000607745					
-20	18.02881	0.000608755					
-19.9	18.04875	0.000609811					
-19.8	18.06869	0.000610834					
-19.7	18.08861	0.000611913					
-19.6	18.10857	0.000612873					
-19.5	18.1285	0.000613979					
-19.4	18.14842	0.000614929					
-19.3	18.16837	0.000616064					
-19.2	18.18833	0.000617001					
-19.1	18.20826	0.000618008					
-19	18.22817	0.000619082					
-18.9	18.24812	0.000620074					
-18.8	18.26808	0.000621118					
-18.7	18.28804	0.000622075					
-18.6	18.30799	0.000623119					
-18.5	18.32793	0.000624202					
-18.4	18.34786	0.000625243					
-18.3	18.36779	0.00062618					
-18.2	18.38774	0.000627213					
-18.1	18.40769	0.000628274					
-18	18.42762	0.000629247					
-17.9	18.44756	0.000630237					
-17.8	18.46746	0.000631205					
-17.7	18.4874	0.000632235					
-17.6	18.50734	0.000633211					
-17.5	18.52727	0.000634284					
-17.4	18.54721	0.00063521					
-17.3	18.56717	0.000636325					
-17.2	18.58712	0.000637335					
-17.1	18.60708	0.000638289					
-17	18.62703	0.000639339					
-16.9	18.64701	0.000640337					
-16.8	18.66698	0.000641387					
-16.7	18.68694	0.000642338					
-16.6	18.70689	0.00064339					
-16.5	18.72686	0.000644411					
-16.4	18.74681	0.000645435					
-16.3	18.76677	0.000646333					
-16.2	18.78672	0.000647438					
-16.1	18.80666	0.000648381					
-16	18.82661	0.000649482					
-15.9	18.84657	0.000650472					
-15.8	18.86653	0.000651361					
-15.7	18.8865	0.000652485					
-15.6	18.90645	0.000653409					
-15.5	18.92639	0.000654381					
-15.4	18.94631	0.00065545					
-15.3	18.96623	0.000656473					
-15.2	18.98615	0.000657491					
-15.1	19.00607	0.00065845					
-15	19.02598	0.000659449					
-14.9	19.04588	0.000660469					
-14.8	19.06578	0.000661529					
-14.7	19.08569	0.00066252					
-14.6	19.10559	0.000663488					
-14.5	19.12548	0.000664479					
-14.4	19.14539	0.000665573					
-14.3	19.16531	0.000666469					
-14.2	19.18522	0.000667485					
-14.1	19.20511	0.000668464					
-14	19.22503	0.000669525					
-13.9	19.24495	0.00067054					
-13.8	19.26487	0.000671539					
-13.7	19.28478	0.00067245					
-13.6	19.30469	0.000673501					
-13.5	19.32462	0.000674486					
-13.4	19.34456	0.000675547					
-13.3	19.36454	0.000676479					
-13.2	19.3845	0.000677639					
-13.1	19.40445	0.000678511					
-13	19.42441	0.00067946					
-12.9	19.44441	0.000680595					
-12.8	19.4644	0.000681553					
-12.7	19.48439	0.000682693					
-12.6	19.50438	0.000683608					
-12.5	19.5244	0.000684709					
-12.4	19.54441	0.000685688					
-12.3	19.56441	0.000686785					
-12.2	19.58439	0.000687753					
-12.1	19.6044	0.000688824					
-12	19.62443	0.000689803					
-11.9	19.64444	0.000690834					
-11.8	19.66444	0.000691939					
-11.7	19.68447	0.000692894					
-11.6	19.7045	0.000693999					
-11.5	19.72454	0.000694992					
-11.4	19.74457	0.000696143					
-11.3	19.76459	0.000696996					
-11.2	19.7846	0.000698116					
-11.1	19.80459	0.000699082					
-11	19.82462	0.000700126					
-10.9	19.8446	0.000701208					
-10.8	19.86457	0.000702173					
-10.7	19.88453	0.000703255					
-10.6	19.90451	0.000704228					
-10.5	19.92446	0.000705289					
-10.4	19.94441	0.000706276					
-10.3	19.96438	0.00070742					
-10.2	19.98434	0.000708368					
-10.1	20.00434	0.000709424					
-10	20.02431	0.00071036					
-9.9	20.04424	0.000711488					
-9.8	20.06417	0.000712419					
-9.7	20.0841	0.000713436					
-9.6	20.10402	0.000714493					
-9.5	20.12394	0.000715488					
-9.4	20.14384	0.000716552					
-9.3	20.16374	0.000717503					
-9.2	20.18368	0.000718527					
-9.1	20.20362	0.000719512					
-9	20.22354	0.00072057					
-8.9	20.24347	0.000721529					
-8.8	20.26344	0.000722545					
-8.7	20.28337	0.000723629					
-8.6	20.30332	0.000724528					
-8.5	20.32326	0.000725556					
-8.4	20.34322	0.000726529					
-8.3	20.36318	0.000727548					
-8.2	20.38313	0.000728585					
-8.1	20.40309	0.000729611					
-8	20.42301	0.000730553					
-7.9	20.44294	0.000731487					
-7.8	20.46289	0.000732537					
-7.7	20.48285	0.000733537					
-7.6	20.5028	0.000734478					
-7.5	20.52274	0.000735522					
-7.4	20.54272	0.000736538					
-7.3	20.5627	0.000737468					
-7.2	20.58265	0.000738447					
-7.1	20.60259	0.000739454					
-7	20.62254	0.000740443					
-6.9	20.64251	0.000741432					
-6.8	20.66244	0.000742422					
-6.7	20.68238	0.00074339					
-6.6	20.70235	0.000744383					
-6.5	20.72232	0.000745334					
-6.4	20.74226	0.00074638					
-6.3	20.7622	0.000747345					
-6.2	20.78216	0.000748388					
-6.1	20.80212	0.000749351					
-6	20.82206	0.000750456					
-5.9	20.84202	0.000751383					
-5.8	20.86196	0.000752354					
-5.7	20.88189	0.00075348					
-5.6	20.90181	0.000754402					
-5.5	20.92177	0.000755493					
-5.4	20.94172	0.000756511					
-5.3	20.96167	0.000757492					
-5.2	20.98161	0.000758495					
-5.1	21.00156	0.000759537					
-5	21.02152	0.000760571					
-4.9	21.04149	0.000761506					
-4.8	21.06144	0.000762603					
-4.7	21.0814	0.000763565					
-4.6	21.10137	0.000764584					
-4.5	21.12133	0.000765457					
-4.4	21.1413	0.000766626					
-4.3	21.16128	0.000767497					
-4.2	21.18124	0.000768522					
-4.1	21.2012	0.000769476					
-4	21.22116	0.000770492					
-3.9	21.2411	0.000771483					
-3.8	21.26106	0.000772489					
-3.7	21.28104	0.000773493					
-3.6	21.30103	0.000774468					
-3.5	21.32104	0.00077555					
-3.4	21.34101	0.000776457					
-3.3	21.36096	0.000777477					
-3.2	21.38092	0.000778461					
-3.1	21.4009	0.000779449					
-3	21.42086	0.000780416					
-2.9	21.44083	0.000781458					
-2.8	21.46081	0.000782419					
-2.7	21.48077	0.000783467					
-2.6	21.50072	0.000784413					
-2.5	21.52067	0.000785352					
-2.4	21.54062	0.000786357					
-2.3	21.56059	0.000787406					
-2.2	21.58055	0.000788384					
-2.1	21.60052	0.00078925					
-2	21.62048	0.00079041					
-1.9	21.64046	0.000791303					
-1.8	21.66045	0.000792244					
-1.7	21.68043	0.000793239					
-1.6	21.70043	0.00079427					
-1.5	21.72039	0.000795251					
-1.4	21.74037	0.000796279					
-1.3	21.76036	0.000797266					
-1.2	21.78034	0.000798229					
-1.1	21.8003	0.000799151					
-1	21.82028	0.000800182					
-0.9	21.84027	0.000801122					
-0.8	21.86025	0.000802101					
-0.7	21.8802	0.000803133					
-0.6	21.9002	0.000804097					
-0.5	21.92017	0.000805063					
-0.4	21.94015	0.000805974					
-0.3	21.96012	0.000807036					
-0.2	21.98011	0.000807917					
-0.1	22.00008	0.000809008					
0	22.02006	0.00080989					
0.1	22.04003	0.000810978					
0.2	22.06	0.000811824					
0.3	22.07997	0.000812867					
0.4	22.09993	0.000813813					
0.5	22.11988	0.00081471					
0.6	22.13983	0.000815749					
0.7	22.15977	0.000816638					
0.8	22.17974	0.000817682					
0.9	22.19971	0.000818566					
1	22.21968	0.000819586					
1.1	22.23963	0.000820495					
1.2	22.25955	0.000821406					
1.3	22.27948	0.00082242					
1.4	22.29944	0.000823338					
1.5	22.3194	0.000824309					
1.6	22.33935	0.000825164					
1.7	22.35928	0.000826277					
1.8	22.37922	0.000827087					
1.9	22.39913	0.00082812					
2	22.41908	0.000828986					
2.1	22.439	0.000830003					
2.2	22.45894	0.0008309					
2.3	22.47886	0.000831808					
2.4	22.49882	0.000832799					
2.5	22.51876	0.000833691					
2.6	22.53872	0.000834732					
2.7	22.55866	0.000835619					
2.8	22.57863	0.000836609					
2.9	22.59858	0.000837457					
3	22.61854	0.000838512					
3.1	22.6385	0.000839392					
3.2	22.65848	0.00084029					
3.3	22.67847	0.000841354					
3.4	22.69842	0.000842193					
3.5	22.7184	0.000843246					
3.6	22.73837	0.000844079					
3.7	22.75834	0.000845059					
3.8	22.77835	0.00084598					
3.9	22.79834	0.000846955					
4	22.81834	0.000847794					
4.1	22.83833	0.000848801					
4.2	22.85834	0.000849674					
4.3	22.87834	0.000850652					
4.4	22.89833	0.000851473					
4.5	22.91831	0.000852332					
4.6	22.93833	0.000853391					
4.7	22.95833	0.000854238					
4.8	22.97835	0.000855158					
4.9	22.99834	0.000856033					
5	23.01832	0.000857003					
5.1	23.03831	0.000857925					
5.2	23.0583	0.000858796					
5.3	23.07829	0.000859771					
5.4	23.09826	0.000860645					
5.5	23.11827	0.000861614					
5.6	23.13824	0.000862474					
5.7	23.15823	0.000863411					
5.8	23.17822	0.000864357					
5.9	23.1982	0.000865161					
6	23.21817	0.000866127					
6.1	23.23813	0.000867001					
6.2	23.25809	0.000867921					
6.3	23.27804	0.000868842					
6.4	23.29801	0.000869752					
6.5	23.31796	0.00087065					
6.6	23.33794	0.000871535					
6.7	23.35785	0.000872506					
6.8	23.37782	0.000873313					
6.9	23.39777	0.00087419					
7	23.41773	0.000875161					
7.1	23.43767	0.00087607					
7.2	23.45762	0.000876938					
7.3	23.47756	0.000877864					
7.4	23.49751	0.000878779					
7.5	23.51747	0.000879622					
7.6	23.53742	0.000880612					
7.7	23.55735	0.000881377					
7.8	23.57727	0.000882348					
7.9	23.59719	0.000883085					
8	23.61712	0.000884096					
8.1	23.63705	0.000884948					
8.2	23.657	0.000885817					
8.3	23.67696	0.000886708					
8.4	23.69692	0.000887613					
8.5	23.71688	0.000888511					
8.6	23.73683	0.000889334					
8.7	23.75677	0.00089028					
8.8	23.77673	0.000891116					
8.9	23.79667	0.000891983					
9	23.81661	0.000892837					
9.1	23.83656	0.000893776					
9.2	23.85655	0.000894619					
9.3	23.87649	0.000895545					
9.4	23.89646	0.000896477					
9.5	23.9164	0.000897251					
9.6	23.93636	0.00089818					
9.7	23.95634	0.000898996					
9.8	23.97633	0.000899932					
9.9	23.99633	0.000900744					
10	24.01632	0.000901666					
10.1	24.0363	0.000902564					
10.2	24.05629	0.000903363					
10.3	24.07628	0.000904261					
10.4	24.09625	0.000905139					
10.5	24.11624	0.000906073					
10.6	24.13621	0.000906889					
10.7	24.15619	0.000907866					
10.8	24.17616	0.000908613					
10.9	24.19614	0.0009096					
11	24.21612	0.000910384					
11.1	24.23611	0.000911218					
11.2	24.25607	0.000912139					
11.3	24.27603	0.000912995					
11.4	24.29602	0.000913895					
11.5	24.31598	0.000914756					
11.6	24.33596	0.000915643					
11.7	24.35591	0.000916481					
11.8	24.37586	0.000917398					
11.9	24.39581	0.000918259					
12	24.41577	0.000919065					
12.1	24.43574	0.000919926					
12.2	24.45571	0.000920868					
12.3	24.47569	0.00092171					
12.4	24.49565	0.000922582					
12.5	24.51561	0.000923455					
12.6	24.53557	0.000924432					
12.7	24.55554	0.000925218					
12.8	24.57552	0.000926045					
12.9	24.5955	0.000927024					
13	24.61546	0.000927836					
13.1	24.63541	0.000928694					
13.2	24.65539	0.000929576					
13.3	24.67541	0.000930448					
13.4	24.69539	0.000931349					
13.5	24.71538	0.000932223					
13.6	24.73536	0.000933024					
13.7	24.75536	0.000933967					
13.8	24.77536	0.000934798					
13.9	24.79538	0.00093573					
14	24.81539	0.000936486					
14.1	24.83539	0.00093742					
14.2	24.85538	0.000938421					
14.3	24.87536	0.000939172					
14.4	24.89535	0.000940018					
14.5	24.91534	0.000940974					
14.6	24.93537	0.000941912					
14.7	24.95536	0.000942766					
14.8	24.97537	0.000943677					
14.9	24.99539	0.000944516					
15	25.01542	0.000945496					
15.1	25.03544	0.000946355					
15.2	25.05547	0.00094722					
15.3	25.07547	0.000948115					
15.4	25.09549	0.000948992					
15.5	25.11551	0.000949975					
15.6	25.13552	0.000950719					
15.7	25.15554	0.000951683					
15.8	25.17555	0.000952488					
15.9	25.19557	0.000953498					
16	25.21557	0.0009543					
16.1	25.23557	0.000955209					
16.2	25.25557	0.00095611					
16.3	25.27557	0.000956983					
16.4	25.29559	0.000957914					
16.5	25.31559	0.000958734					
16.6	25.33558	0.000959634					
16.7	25.35555	0.000960511					
16.8	25.37555	0.000961484					
16.9	25.39555	0.000962225					
17	25.41553	0.000963203					
17.1	25.4355	0.000964057					
17.2	25.45549	0.000964873					
17.3	25.47545	0.000965745					
17.4	25.49542	0.000966555					
17.5	25.51537	0.000967449					
17.6	25.53533	0.000968315					
17.7	25.5553	0.000969134					
17.8	25.57527	0.000969966					
17.9	25.59522	0.000970914					
18	25.61517	0.00097169					
18.1	25.63513	0.000972621					
18.2	25.6551	0.000973345					
18.3	25.67507	0.000974348					
18.4	25.69504	0.000975225					
18.5	25.71499	0.000975963					
18.6	25.73496	0.000976919					
18.7	25.75494	0.00097772					
18.8	25.77494	0.000978559					
18.9	25.7949	0.000979364					
19	25.81488	0.000980197					
19.1	25.83486	0.000981011					
19.2	25.85485	0.000981929					
19.3	25.87486	0.000982633					
19.4	25.89487	0.000983488					
19.5	25.91484	0.000984323					
19.6	25.93484	0.000985247					
19.7	25.95481	0.000986018					
19.8	25.97482	0.000986807					
19.9	25.99479	0.00098767					
20	26.01479	0.000988502					
20.1	26.03478	0.000989317					
20.2	26.05476	0.000990148					
20.3	26.07473	0.000991015					
20.4	26.09472	0.000991832					
20.5	26.11471	0.000992659					
20.6	26.13474	0.0009934					
20.7	26.15474	0.000994332					
20.8	26.17474	0.000995123					
20.9	26.19472	0.000996005					
21	26.21471	0.000996722					
21.1	26.23468	0.00099757					
21.2	26.25466	0.000998416					
21.3	26.27462	0.000999223					
21.4	26.29459	0.001000051					
21.5	26.31457	0.001000877					
21.6	26.33456	0.001001777					
21.7	26.35457	0.001002553					
21.8	26.37456	0.001003469					
21.9	26.39456	0.00100424					
22	26.41458	0.00100516					
22.1	26.4346	0.001005874					
22.2	26.45462	0.001006813					
22.3	26.47463	0.00100763					
22.4	26.49465	0.001008451					
22.5	26.51468	0.001009314					
22.6	26.53468	0.0010101					
22.7	26.55468	0.001010956					
22.8	26.5747	0.001011712					
22.9	26.5947	0.001012654					
23	26.61472	0.001013403					
23.1	26.63474	0.001014289					
23.2	26.65477	0.001015009					
23.3	26.67478	0.001015968					
23.4	26.69481	0.001016777					
23.5	26.71483	0.001017506					
23.6	26.73485	0.001018477					
23.7	26.75485	0.001019226					
23.8	26.77484	0.001020115					
23.9	26.79484	0.0010208					
24	26.81484	0.001021724					
24.1	26.83483	0.001022509					
24.2	26.85479	0.001023361					
24.3	26.87477	0.001024187					
24.4	26.89476	0.001025002					
24.5	26.91475	0.001025757					
24.6	26.93472	0.001026607					
24.7	26.95469	0.001027413					
24.8	26.97466	0.001028243					
24.9	26.99463	0.001028943					
25	27.01462	0.001029822					
25.1	27.03458	0.001030613					
25.2	27.05453	0.001031381					
25.3	27.07446	0.001032223					
25.4	27.09441	0.001033024					
25.5	27.11436	0.001033814					
25.6	27.13433	0.001034628					
25.7	27.15429	0.001035387					
25.8	27.17425	0.001036233					
25.9	27.19421	0.001036989					
26	27.21417	0.001037833					
26.1	27.23413	0.001038624					
26.2	27.25408	0.001039388					
26.3	27.27407	0.00104021					
26.4	27.29402	0.001041028					
26.5	27.314	0.001041742					
26.6	27.33398	0.001042591					
26.7	27.35393	0.001043333					
26.8	27.37391	0.001044114					
26.9	27.39386	0.001044889					
27	27.41384	0.001045718					
27.1	27.43381	0.001046479					
27.2	27.45379	0.001047195					
27.3	27.47377	0.001047979					
27.4	27.49377	0.001048803					
27.5	27.51374	0.001049611					
27.6	27.53371	0.001050322					
27.7	27.55369	0.00105116					
27.8	27.57368	0.001051843					
27.9	27.59367	0.001052728					
28	27.61364	0.001053406					
28.1	27.63362	0.001054164					
28.2	27.65362	0.001054928					
28.3	27.67363	0.001055735					
28.4	27.69363	0.00105649					
28.5	27.71362	0.001057178					
28.6	27.7336	0.001058056					
28.7	27.75358	0.001058739					
28.8	27.77358	0.001059578					
28.9	27.79358	0.001060268					
29	27.81359	0.001061061					
29.1	27.83358	0.001061854					
29.2	27.85356	0.001062497					
29.3	27.87356	0.001063262					
29.4	27.89356	0.001064021					
29.5	27.91356	0.001064788					
29.6	27.93358	0.001065503					
29.7	27.95357	0.001066273					
29.8	27.97359	0.001066984					
29.9	27.99358	0.001067778					
30	28.01359	0.001068466					
30.1	28.03362	0.001069255					
30.2	28.0536	0.001069992					
30.3	28.07357	0.001070724					
30.4	28.09357	0.001071512					
30.5	28.11358	0.001072134					
30.6	28.13358	0.001072911					
30.7	28.15359	0.001073677					
30.8	28.1736	0.001074392					
30.9	28.19358	0.001075058					
31	28.21357	0.001075875					
31.1	28.23356	0.001076527					
31.2	28.25355	0.001077189					
31.3	28.27357	0.001078016					
31.4	28.29357	0.001078585					
31.5	28.31358	0.001079326					
31.6	28.33356	0.001080112					
31.7	28.35356	0.001080813					
31.8	28.37354	0.001081421					
31.9	28.39349	0.001082162					
32	28.41346	0.001082987					
32.1	28.43341	0.001083643					
32.2	28.45337	0.001084299					
32.3	28.47338	0.001085061					
32.4	28.49337	0.001085823					
32.5	28.51336	0.001086431					
32.6	28.53333	0.001087138					
32.7	28.55333	0.001087836					
32.8	28.57332	0.001088536					
32.9	28.5933	0.001089266					
33	28.61331	0.001089893					
33.1	28.63332	0.00109063					
33.2	28.65331	0.001091417					
33.3	28.67329	0.001092022					
33.4	28.69328	0.00109269					
33.5	28.71325	0.001093336					
33.6	28.73323	0.001094087					
33.7	28.75324	0.001094683					
33.8	28.77325	0.001095486					
33.9	28.79329	0.001096069					
34	28.81333	0.001096804					
34.1	28.83337	0.001097481					
34.2	28.8534	0.001098164					
34.3	28.87341	0.001098831					
34.4	28.89341	0.001099439					
34.5	28.91341	0.001100244					
34.6	28.9334	0.001100839					
34.7	28.95338	0.001101493					
34.8	28.97337	0.001102194					
34.9	28.99337	0.001102903					
35	29.01337	0.001103468					
35.1	29.03335	0.001104187					
35.2	29.05333	0.001104909					
35.3	29.07334	0.001105506					
35.4	29.09335	0.001106267					
35.5	29.11337	0.001106704					
35.6	29.13338	0.001107501					
35.7	29.15339	0.001108085					
35.8	29.17338	0.001108775					
35.9	29.19336	0.001109331					
36	29.21335	0.00111009					
36.1	29.23334	0.001110724					
36.2	29.25334	0.001111365					
36.3	29.27334	0.001112009					
36.4	29.29335	0.001112597					
36.5	29.31335	0.001113356					
36.6	29.33335	0.001113914					
36.7	29.35337	0.001114558					
36.8	29.37337	0.001115147					
36.9	29.39336	0.00111583					
37	29.41337	0.001116463					
37.1	29.43338	0.001116986					
37.2	29.45339	0.001117655					
37.3	29.4734	0.001118307					
37.4	29.49338	0.001119013					
37.5	29.51339	0.001119527					
37.6	29.53337	0.001120246					
37.7	29.55337	0.001120728					
37.8	29.57336	0.001121522					
37.9	29.59334	0.001121994					
38	29.61331	0.001122627					
38.1	29.63328	0.001123247					
38.2	29.65324	0.001123817					
38.3	29.6732	0.001124453					
38.4	29.69317	0.001125092					
38.5	29.71313	0.001125676					
38.6	29.73311	0.001126323					
38.7	29.75307	0.001126932					
38.8	29.77303	0.001127388					
38.9	29.79299	0.001128057					
39	29.81296	0.001128619					
39.1	29.8329	0.001129266					
39.2	29.85286	0.001129768					
39.3	29.8728	0.001130369					
39.4	29.89276	0.001130951					
39.5	29.9127	0.001131595					
39.6	29.93266	0.001132056					
39.7	29.9526	0.001132709					
39.8	29.97257	0.001133288					
39.9	29.99255	0.001133854					
40	30.01253	0.001134395					
40.1	30.03249	0.001135022					
40.2	30.05248	0.001135591					
40.3	30.07245	0.001136113					
40.4	30.09243	0.001136705					
40.5	30.1124	0.001137124					
40.6	30.13239	0.001137806					
40.7	30.15237	0.001138334					
40.8	30.17234	0.001138876					
40.9	30.19232	0.001139424					
41	30.21231	0.00114002					
41.1	30.2323	0.001140564					
41.2	30.25228	0.001141046					
41.3	30.27227	0.001141638					
41.4	30.29227	0.001142112					
41.5	30.31226	0.00114275					
41.6	30.33226	0.001143221					
41.7	30.35224	0.001143795					
41.8	30.37224	0.001144245					
41.9	30.39223	0.001144888					
42	30.4122	0.001145315					
42.1	30.4322	0.001145878					
42.2	30.45218	0.00114642					
42.3	30.47216	0.001146931					
42.4	30.49215	0.001147454					
42.5	30.51214	0.001147905					
42.6	30.53212	0.001148515					
42.7	30.55209	0.001148953					
42.8	30.57206	0.001149538					
42.9	30.59204	0.001149981					
43	30.61203	0.001150524					
43.1	30.632	0.001151028					
43.2	30.65197	0.001151591					
43.3	30.67194	0.001152087					
43.4	30.69192	0.001152535					
43.5	30.71189	0.001153098					
43.6	30.73186	0.00115352					
43.7	30.75184	0.001154109					
43.8	30.77181	0.001154542					
43.9	30.79178	0.001155067					
44	30.81175	0.00115552					
44.1	30.83174	0.001156033					
44.2	30.85172	0.001156465					
44.3	30.8717	0.001156969					
44.4	30.89168	0.001157535					
44.5	30.91166	0.001157885					
44.6	30.93165	0.001158342					
44.7	30.95163	0.001158889					
44.8	30.97161	0.001159344					
44.9	30.9916	0.00115973					
45	31.0116	0.00116028					
45.1	31.03161	0.00116067					
45.2	31.05163	0.001161223					
45.3	31.07164	0.001161707					
45.4	31.09164	0.001162107					
45.5	31.11164	0.001162507					
45.6	31.13165	0.001162951					
45.7	31.15164	0.001163459					
45.8	31.17161	0.001163858					
45.9	31.19161	0.001164299					
46	31.2116	0.001164704					
46.1	31.23159	0.001165204					
46.2	31.25156	0.001165519					
46.3	31.27152	0.001165981					
46.4	31.2915	0.001166415					
46.5	31.31147	0.001166823					
46.6	31.33146	0.001167219					
46.7	31.35144	0.001167731					
46.8	31.37142	0.001168086					
46.9	31.39141	0.001168456					
47	31.41139	0.001168953					
47.1	31.43135	0.001169275					
47.2	31.45132	0.001169732					
47.3	31.47127	0.001170118					
47.4	31.49123	0.001170521					
47.5	31.51121	0.001170858					
47.6	31.53118	0.001171338					
47.7	31.55114	0.001171628					
47.8	31.57113	0.001172109					
47.9	31.59112	0.001172412					
48	31.61108	0.001172799					
48.1	31.63108	0.001173151					
48.2	31.65105	0.001173535					
48.3	31.67105	0.001173974					
48.4	31.69105	0.001174258					
48.5	31.71104	0.001174705					
48.6	31.73105	0.001174996					
48.7	31.75102	0.001175405					
48.8	31.77103	0.001175738					
48.9	31.79103	0.001176112					
49	31.81103	0.001176429					
49.1	31.83102	0.001176854					
49.2	31.85102	0.001177129					
49.3	31.87102	0.00117742					
49.4	31.89103	0.00117791					
49.5	31.91102	0.001178116					
49.6	31.93101	0.001178508					
49.7	31.951	0.001178819					
49.8	31.971	0.00117917					
49.9	31.99099	0.001179457					
50	32.011	0.001179788					
50.1	32.03099	0.001180135					
50.2	32.05097	0.00118043					
50.3	32.07097	0.001180722					
50.4	32.09097	0.001181037					
50.5	32.11097	0.00118138					
50.6	32.13097	0.001181634					
50.7	32.15094	0.001181938					
50.8	32.17092	0.001182195					
50.9	32.19088	0.001182513					
51	32.21086	0.001182839					
51.1	32.23084	0.001183117					
51.2	32.25081	0.001183312					
51.3	32.27078	0.001183651					
51.4	32.29075	0.001183962					
51.5	32.31073	0.001184152					
51.6	32.33071	0.001184439					
51.7	32.3507	0.001184726					
51.8	32.37068	0.001185051					
51.9	32.39066	0.001185265					
52	32.41065	0.001185475					
52.1	32.43062	0.001185761					
52.2	32.45059	0.001185998					
52.3	32.47056	0.001186252					
52.4	32.49055	0.001186491					
52.5	32.51053	0.001186725					
52.6	32.5305	0.001186967					
52.7	32.55049	0.001187211					
52.8	32.57051	0.001187418					
52.9	32.59052	0.00118765					
53	32.61053	0.001187936					
53.1	32.63052	0.001188076					
53.2	32.65052	0.0011883					
53.3	32.67053	0.001188488					
53.4	32.69053	0.001188653					
53.5	32.71053	0.001188965					
53.6	32.73051	0.001189054					
53.7	32.75053	0.001189314					
53.8	32.77052	0.001189485					
53.9	32.79052	0.001189716					
54	32.8105	0.00118979					
54.1	32.83048	0.001189966					
54.2	32.85049	0.001190185					
54.3	32.87048	0.001190314					
54.4	32.89045	0.001190593					
54.5	32.91042	0.001190598					
54.6	32.93039	0.001190801					
54.7	32.95037	0.001190931					
54.8	32.97035	0.001191119					
54.9	32.9903	0.001191182					
55	33.01027	0.001191335					
55.1	33.03023	0.001191511					
55.2	33.05022	0.001191593					
55.3	33.07018	0.001191653					
55.4	33.09013	0.001191803					
55.5	33.1101	0.001191962					
55.6	33.13008	0.001191969					
55.7	33.15005	0.001192137					
55.8	33.17001	0.001192172					
55.9	33.18998	0.001192313					
56	33.20995	0.001192432					
56.1	33.22991	0.001192453					
56.2	33.24989	0.00119252					
56.3	33.26984	0.001192528					
56.4	33.2898	0.001192703					
56.5	33.30979	0.00119261					
56.6	33.32976	0.001192719					
56.7	33.34974	0.001192748					
56.8	33.36971	0.001192856					
56.9	33.38969	0.001192809					
57	33.40965	0.001192841			57	0.001192841	
57.1	33.42963	0.001192895			108	-0.000324331	
57.2	33.4496	0.001192924			51	-0.001517172	-2.97485E-05
57.3	33.46956	0.001192915					
57.4	33.48954	0.00119287					
57.5	33.50949	0.001192957					
57.6	33.52943	0.001192909					
57.7	33.54939	0.001192923					
57.8	33.56934	0.001192835					
57.9	33.58929	0.001192855					
58	33.60925	0.001192764					
58.1	33.62922	0.001192789					
58.2	33.64916	0.001192666					
58.3	33.66914	0.001192647					
58.4	33.6891	0.001192639					
58.5	33.70908	0.001192537					
58.6	33.72904	0.001192467					
58.7	33.749	0.001192351					
58.8	33.76898	0.00119235					
58.9	33.78895	0.001192219					
59	33.80892	0.00119213					
59.1	33.82889	0.001192051					
59.2	33.84886	0.001191999					
59.3	33.86882	0.001191812					
59.4	33.88881	0.001191768					
59.5	33.9088	0.001191558					
59.6	33.92884	0.00119149					
59.7	33.94885	0.001191383					
59.8	33.96884	0.001191263					
59.9	33.98885	0.001191048					
60	34.00886	0.001190874					
60.1	34.02887	0.001190796					
60.2	34.0489	0.001190565					
60.3	34.06894	0.001190386					
60.4	34.08897	0.001190198					
60.5	34.10904	0.001190067					
60.6	34.12908	0.001189819					
60.7	34.14913	0.001189629					
60.8	34.16918	0.001189385					
60.9	34.18921	0.001189255					
61	34.20926	0.001189032					
61.1	34.22932	0.001188718					
61.2	34.24938	0.001188502					
61.3	34.26943	0.001188214					
61.4	34.28947	0.001188039					
61.5	34.30951	0.00118772					
61.6	34.32953	0.001187511					
61.7	34.34956	0.001187167					
61.8	34.36959	0.001186928					
61.9	34.38962	0.001186613					
62	34.40965	0.001186219					
62.1	34.42968	0.001185974					
62.2	34.44969	0.001185645					
62.3	34.4697	0.001185325					
62.4	34.4897	0.001184966					
62.5	34.50969	0.00118467					
62.6	34.52966	0.00118426					
62.7	34.54964	0.001184022					
62.8	34.56962	0.00118356					
62.9	34.58959	0.001183119					
63	34.60957	0.001182768					
63.1	34.62954	0.001182445					
63.2	34.6495	0.001182031					
63.3	34.66948	0.001181592					
63.4	34.68946	0.001181261					
63.5	34.70943	0.001180713					
63.6	34.7294	0.001180273					
63.7	34.74937	0.001179845					
63.8	34.76933	0.001179409					
63.9	34.78932	0.001178894					
64	34.80929	0.001178411					
64.1	34.82928	0.001177961					
64.2	34.84928	0.001177486					
64.3	34.86925	0.001176943					
64.4	34.88922	0.001176456					
64.5	34.90919	0.001175897					
64.6	34.92917	0.001175376					
64.7	34.94916	0.001174847					
64.8	34.96916	0.001174243					
64.9	34.98915	0.001173705					
65	35.00914	0.001173106					
65.1	35.02914	0.001172561					
65.2	35.04916	0.001172					
65.3	35.06915	0.001171325					
65.4	35.08913	0.001170691					
65.5	35.10913	0.001170108					
65.6	35.12914	0.001169556					
65.7	35.14915	0.001168727					
65.8	35.16918	0.00116817					
65.9	35.18919	0.001167541					
66	35.20918	0.001166848					
66.1	35.22919	0.001166075					
66.2	35.24921	0.001165427					
66.3	35.26922	0.001164768					
66.4	35.28924	0.001164076					
66.5	35.30925	0.001163316					
66.6	35.32929	0.001162562					
66.7	35.34931	0.001161801					
66.8	35.3693	0.00116105					
66.9	35.38932	0.001160267					
67	35.40933	0.001159465					
67.1	35.42935	0.00115875					
67.2	35.44934	0.001157852					
67.3	35.46935	0.001157046					
67.4	35.48937	0.001156209					
67.5	35.5094	0.001155435					
67.6	35.5294	0.001154465					
67.7	35.54936	0.001153665					
67.8	35.56936	0.001152719					
67.9	35.58936	0.001151959					
68	35.60939	0.001150987					
68.1	35.62942	0.001150053					
68.2	35.64942	0.001149071					
68.3	35.66939	0.001148173					
68.4	35.68941	0.00114728					
68.5	35.70942	0.001146122					
68.6	35.72943	0.001145243					
68.7	35.74943	0.001144155					
68.8	35.76945	0.001143238					
68.9	35.78948	0.001142109					
69	35.8095	0.001141031					
69.1	35.82952	0.001140045					
69.2	35.84955	0.001138891					
69.3	35.86959	0.001137793					
69.4	35.8896	0.001136637					
69.5	35.90961	0.001135602					
69.6	35.92963	0.001134426					
69.7	35.94969	0.001133235					
69.8	35.96975	0.0011321					
69.9	35.98978	0.001130884					
70	36.00979	0.001129716					
70.1	36.02983	0.001128476					
70.2	36.04985	0.001127225					
70.3	36.0699	0.00112586					
70.4	36.08996	0.001124717					
70.5	36.10996	0.001123355					
70.6	36.12998	0.001122084					
70.7	36.15001	0.001120688					
70.8	36.17004	0.001119418					
70.9	36.19004	0.001117982					
71	36.21004	0.001116593					
71.1	36.23005	0.001115183					
71.2	36.25002	0.001113793					
71.3	36.27003	0.0011124					
71.4	36.29002	0.001110878					
71.5	36.31002	0.001109436					
71.6	36.33003	0.001107904					
71.7	36.35005	0.00110645					
71.8	36.37002	0.001104869					
71.9	36.39003	0.001103211					
72	36.41003	0.001101705					
72.1	36.43003	0.001100163					
72.2	36.44999	0.001098406					
72.3	36.46999	0.001096796					
72.4	36.48997	0.001095236					
72.5	36.50996	0.001093399					
72.6	36.52994	0.001091711					
72.7	36.54995	0.001090004					
72.8	36.56993	0.00108816					
72.9	36.58993	0.001086421					
73	36.60994	0.001084581					
73.1	36.62994	0.001082756					
73.2	36.64995	0.001080861					
73.3	36.66996	0.001079026					
73.4	36.68996	0.001077127					
73.5	36.70995	0.001075212					
73.6	36.72996	0.001073223					
73.7	36.74994	0.001071228					
73.8	36.76993	0.001069324					
73.9	36.78992	0.001067255					
74	36.80989	0.001065159					
74.1	36.82987	0.00106326					
74.2	36.84984	0.001061009					
74.3	36.86985	0.001058999					
74.4	36.88982	0.001056757					
74.5	36.90979	0.001054769					
74.6	36.92976	0.001052544					
74.7	36.94975	0.001050329					
74.8	36.96971	0.001048057					
74.9	36.9897	0.001045802					
75	37.00966	0.001043551					
75.1	37.02963	0.001041211					
75.2	37.04962	0.00103897					
75.3	37.06959	0.001036651					
75.4	37.08955	0.00103444					
75.5	37.10954	0.001032034					
75.6	37.12954	0.001029642					
75.7	37.14952	0.001027266					
75.8	37.16952	0.001025019					
75.9	37.18951	0.00102256					
76	37.20954	0.001020003					
76.1	37.22957	0.001017436					
76.2	37.2496	0.001014831					
76.3	37.26965	0.001012423					
76.4	37.28967	0.001009644					
76.5	37.30971	0.001007042					
76.6	37.32974	0.001004304					
76.7	37.3498	0.001001688					
76.8	37.36985	0.000998814					
76.9	37.38992	0.000996041					
77	37.40998	0.00099323					
77.1	37.43007	0.000990393					
77.2	37.45013	0.000987514					
77.3	37.47018	0.000984664					
77.4	37.49027	0.000981822					
77.5	37.51036	0.000978854					
77.6	37.53043	0.000975966					
77.7	37.55049	0.000972975					
77.8	37.57058	0.000970116					
77.9	37.59065	0.000967092					
78	37.61071	0.000964019					
78.1	37.63076	0.000961045					
78.2	37.6508	0.000958008					
78.3	37.67083	0.000954929					
78.4	37.69087	0.000951822					
78.5	37.71092	0.000948756					
78.6	37.73094	0.000945517					
78.7	37.75098	0.000942396					
78.8	37.77099	0.000939223					
78.9	37.791	0.000935868					
79	37.81101	0.000932637					
79.1	37.831	0.000929308					
79.2	37.85099	0.000926089					
79.3	37.87097	0.000922637					
79.4	37.89096	0.000919263					
79.5	37.91091	0.000915697					
79.6	37.93089	0.000912157					
79.7	37.95086	0.000908572					
79.8	37.97082	0.000905037					
79.9	37.99078	0.000901414					
80	38.01076	0.000897762					
80.1	38.03073	0.000894105					
80.2	38.05069	0.000890318					
80.3	38.07066	0.000886601					
80.4	38.09063	0.000882823					
80.5	38.11059	0.000879006					
80.6	38.13057	0.000875095					
80.7	38.15054	0.000871128					
80.8	38.1705	0.000867123					
80.9	38.19049	0.000863182					
81	38.21045	0.000859008					
81.1	38.23042	0.000854961					
81.2	38.25039	0.000850799					
81.3	38.27038	0.000846604					
81.4	38.29038	0.000842239					
81.5	38.31035	0.000838045					
81.6	38.33035	0.000833693					
81.7	38.35033	0.000829346					
81.8	38.37033	0.000824915					
81.9	38.39032	0.000820408					
82	38.41032	0.000816023					
82.1	38.4303	0.000811498					
82.2	38.45031	0.00080702					
82.3	38.47033	0.000802421					
82.4	38.49035	0.000798064					
82.5	38.51034	0.000793575					
82.6	38.53035	0.000788923					
82.7	38.55036	0.000784089					
82.8	38.57039	0.000779414					
82.9	38.59043	0.000774502					
83	38.61047	0.000769642					
83.1	38.63052	0.000764817					
83.2	38.65054	0.000759854					
83.3	38.67057	0.000754969					
83.4	38.69058	0.000749983					
83.5	38.71064	0.000745118					
83.6	38.73067	0.000740151					
83.7	38.75069	0.000735275					
83.8	38.77074	0.00073028					
83.9	38.79078	0.000725283					
84	38.81084	0.000720313					
84.1	38.83086	0.000715182					
84.2	38.8509	0.000710164					
84.3	38.87093	0.000704898					
84.4	38.89095	0.000699826					
84.5	38.91096	0.00069461					
84.6	38.93099	0.000689355					
84.7	38.95098	0.00068394					
84.8	38.97101	0.00067868					
84.9	38.99101	0.000673313					
85	39.011	0.000667901					
85.1	39.03099	0.000662454					
85.2	39.05098	0.000656912					
85.3	39.07099	0.000651566					
85.4	39.09101	0.000645882					
85.5	39.11101	0.000640314					
85.6	39.13101	0.000634601					
85.7	39.15102	0.000628939					
85.8	39.17102	0.000623194					
85.9	39.19101	0.000617431					
86	39.21098	0.00061162					
86.1	39.23097	0.000605837					
86.2	39.25098	0.000599936					
86.3	39.27097	0.000594038					
86.4	39.29097	0.000588061					
86.5	39.31096	0.000582121					
86.6	39.33097	0.000576115					
86.7	39.35098	0.000570221					
86.8	39.371	0.000564433					
86.9	39.39099	0.000558634					
87	39.41101	0.000552591					
87.1	39.43102	0.000546584					
87.2	39.45103	0.000540434					
87.3	39.47105	0.000534301					
87.4	39.49105	0.000528187					
87.5	39.51106	0.00052202					
87.6	39.53108	0.000515911					
87.7	39.55107	0.000509882					
87.8	39.57107	0.000503841					
87.9	39.59105	0.000497707					
88	39.61103	0.000491604					
88.1	39.631	0.000485493					
88.2	39.65098	0.000479326					
88.3	39.67095	0.000473152					
88.4	39.69093	0.000466886					
88.5	39.71091	0.000460689					
88.6	39.73087	0.00045445					
88.7	39.75083	0.00044803					
88.8	39.77078	0.000441736					
88.9	39.79074	0.000435272					
89	39.81069	0.000429007					
89.1	39.83064	0.000422355					
89.2	39.8506	0.000416031					
89.3	39.87057	0.000409439					
89.4	39.89052	0.000403007					
89.5	39.91044	0.000396295					
89.6	39.93039	0.000389833					
89.7	39.95034	0.000383146					
89.8	39.97032	0.000376555					
89.9	39.99029	0.000369953					
90	40.01023	0.000363294					
90.1	40.03021	0.000356621					
90.2	40.0502	0.000350015					
90.3	40.07016	0.000343531					
90.4	40.09012	0.000336938					
90.5	40.11008	0.000330734					
90.6	40.13004	0.000324343					
90.7	40.15001	0.000317875					
90.8	40.16999	0.000311291					
90.9	40.18998	0.000304762					
91	40.20996	0.000298118					
91.1	40.22994	0.000291527					
91.2	40.2499	0.000284966					
91.3	40.26987	0.000278511					
91.4	40.28982	0.000272253					
91.5	40.30978	0.000265807					
91.6	40.32977	0.000259481					
91.7	40.34973	0.000252957					
91.8	40.36968	0.000246689					
91.9	40.38963	0.00024028					
92	40.40958	0.000233992					
92.1	40.42955	0.000227619					
92.2	40.4495	0.000221142					
92.3	40.46945	0.000214773					
92.4	40.48942	0.000208326					
92.5	40.50936	0.000201912					
92.6	40.52931	0.000195463					
92.7	40.54926	0.000189169					
92.8	40.56921	0.000182827					
92.9	40.58913	0.000176439					
93	40.60905	0.000170094					
93.1	40.62897	0.000163774					
93.2	40.64888	0.000157464					
93.3	40.66882	0.00015109					
93.4	40.68874	0.000144973					
93.5	40.70867	0.000138746					
93.6	40.7286	0.00013263					
93.7	40.7485	0.000126435					
93.8	40.76843	0.000120443					
93.9	40.78833	0.00011437					
94	40.80822	0.000108438					
94.1	40.82813	0.000102755					
94.2	40.84805	9.69953E-05					
94.3	40.86794	9.12203E-05					
94.4	40.88783	8.53576E-05					
94.5	40.9077	7.94181E-05					
94.6	40.92756	7.36776E-05					
94.7	40.94744	6.78745E-05					
94.8	40.96731	6.20986E-05					
94.9	40.98722	5.64073E-05					
95	41.0071	5.0786E-05					
95.1	41.02699	4.51922E-05					
95.2	41.04686	3.96983E-05					
95.3	41.06676	3.41862E-05					
95.4	41.08665	2.87735E-05					
95.5	41.10654	2.32589E-05					
95.6	41.12645	1.79071E-05					
95.7	41.14635	1.24052E-05					
95.8	41.16626	7.01697E-06					
95.9	41.18616	1.66823E-06					
96	41.20609	-3.64922E-06					
96.1	41.22604	-9.03659E-06					
96.2	41.24597	-1.43407E-05					
96.3	41.26591	-1.96582E-05					
96.4	41.28586	-2.49311E-05					
96.5	41.30582	-3.02025E-05					
96.6	41.32581	-3.54375E-05					
96.7	41.34578	-4.05974E-05					
96.8	41.36574	-4.57643E-05					
96.9	41.38572	-5.08614E-05					
97	41.40568	-5.59389E-05					
97.1	41.42566	-0.000061045					
97.2	41.44562	-6.60346E-05					
97.3	41.46563	-7.11574E-05					
97.4	41.48561	-7.60614E-05					
97.5	41.50557	-8.1052E-05					
97.6	41.52554	-8.58731E-05					
97.7	41.5455	-9.07311E-05					
97.8	41.56546	-9.54358E-05					
97.9	41.58541	-0.000100279					
98	41.60538	-0.000104917					
98.1	41.62532	-0.000109538					
98.2	41.64525	-0.000114129					
98.3	41.66518	-0.000118696					
98.4	41.6851	-0.000123122					
98.5	41.70503	-0.000127442					
98.6	41.72494	-0.000131671					
98.7	41.74485	-0.000135755					
98.8	41.76478	-0.000140094					
98.9	41.7847	-0.000144208					
99	41.80458	-0.000148391					
99.1	41.82448	-0.000152476					
99.2	41.8444	-0.000156664					
99.3	41.8643	-0.000160688					
99.4	41.88416	-0.000164593					
99.5	41.90405	-0.000168647					
99.6	41.92396	-0.000172539					
99.7	41.94385	-0.000176355					
99.8	41.96374	-0.00018012					
99.9	41.98364	-0.000183887					
100	42.00353	-0.000187414					
100.1	42.02342	-0.000190986					
100.2	42.04331	-0.000194542					
100.3	42.06323	-0.000198005					
100.4	42.08315	-0.000201558					
100.5	42.10307	-0.000204889					
100.6	42.12297	-0.000208279					
100.7	42.14288	-0.000211473					
100.8	42.1628	-0.000214793					
100.9	42.18269	-0.000217912					
101	42.20262	-0.000221057					
101.1	42.22256	-0.000224262					
101.2	42.24249	-0.000227063					
101.3	42.26243	-0.000230187					
101.4	42.28238	-0.000233094					
101.5	42.30235	-0.00023608					
101.6	42.32227	-0.000238812					
101.7	42.34223	-0.000241792					
101.8	42.36218	-0.000244584					
101.9	42.38213	-0.000247286					
102	42.40208	-0.000250014					
102.1	42.42203	-0.000252602					
102.2	42.442	-0.000255237					
102.3	42.46196	-0.000257721					
102.4	42.48191	-0.000260336					
102.5	42.50187	-0.000262667					
102.6	42.5218	-0.000265275					
102.7	42.54175	-0.000267584					
102.8	42.56173	-0.000269832					
102.9	42.58171	-0.000272049					
103	42.60167	-0.00027423					
103.1	42.62162	-0.000276347					
103.2	42.64156	-0.00027832					
103.3	42.6615	-0.000280407					
103.4	42.68143	-0.000282376					
103.5	42.70134	-0.000284276					
103.6	42.72127	-0.000286089					
103.7	42.74121	-0.000287959					
103.8	42.76113	-0.000289863					
103.9	42.78106	-0.000291585					
104	42.80098	-0.000293241					
104.1	42.82089	-0.000294905					
104.2	42.84082	-0.000296413					
104.3	42.86073	-0.000298063					
104.4	42.88064	-0.000299548					
104.5	42.90056	-0.000300996					
104.6	42.92049	-0.000302394					
104.7	42.94043	-0.000303785					
104.8	42.96036	-0.000305074					
104.9	42.98026	-0.000306415					
105	43.00017	-0.000307499					
105.1	43.02012	-0.000308773					
105.2	43.04005	-0.000309889					
105.3	43.06	-0.000311047					
105.4	43.07994	-0.000312113					
105.5	43.09988	-0.000312997					
105.6	43.11982	-0.000314044					
105.7	43.13976	-0.000314823					
105.8	43.15972	-0.000315766					
105.9	43.17965	-0.000316487					
106	43.19961	-0.000317321					
106.1	43.21955	-0.000318					
106.2	43.23952	-0.000318873					
106.3	43.25949	-0.000319539					
106.4	43.27946	-0.0003201					
106.5	43.29941	-0.000320755					
106.6	43.31937	-0.000321159					
106.7	43.33931	-0.000321653					
106.8	43.35925	-0.000322047					
106.9	43.37921	-0.000322521					
107	43.3992	-0.00032302					
107.1	43.41916	-0.000323298					
107.2	43.43912	-0.000323533					
107.3	43.45907	-0.000323807					
107.4	43.47903	-0.000323955					
107.5	43.49901	-0.000324193					
107.6	43.51899	-0.000324304					
107.7	43.53898	-0.000324355					
107.8	43.55894	-0.000324403					
107.9	43.57892	-0.000324343					
108	43.59894	-0.000324331					
108.1	43.61895	-0.000324296					
108.2	43.63894	-0.000324244					
108.3	43.65894	-0.0003245					
108.4	43.67891	-0.00032446					
108.5	43.6989	-0.000324431					
108.6	43.71887	-0.000324109					
108.7	43.73886	-0.00032398					
108.8	43.75886	-0.000323736					
108.9	43.77884	-0.000323651					
109	43.79882	-0.000323332					
109.1	43.81877	-0.000323039					
109.2	43.83875	-0.000322679					
109.3	43.85872	-0.000322148					
109.4	43.87871	-0.00032185					
109.5	43.89869	-0.000321165					
109.6	43.91865	-0.000320698					
109.7	43.93863	-0.000320078					
109.8	43.95862	-0.000319417					
109.9	43.97861	-0.000318771					
110	43.99858	-0.000318205					
110.1	44.01853	-0.000317588					
110.2	44.03848	-0.000316845					
110.3	44.05844	-0.000316186					
110.4	44.0784	-0.000315307					
110.5	44.09836	-0.000314645					
110.6	44.11837	-0.000313637					
110.7	44.13834	-0.000312871					
110.8	44.15832	-0.000312056					
110.9	44.17831	-0.000311106					
111	44.19829	-0.000310178					
111.1	44.21829	-0.000309275					
111.2	44.23828	-0.000308312					
111.3	44.25825	-0.000307221					
111.4	44.27824	-0.000306162					
111.5	44.29821	-0.000305037					
111.6	44.3182	-0.000304033					
111.7	44.33819	-0.000302846					
111.8	44.35816	-0.000301805					
111.9	44.37814	-0.000300704					
112	44.3981	-0.00029953					
112.1	44.41809	-0.000298321					
112.2	44.43808	-0.000297099					
112.3	44.45809	-0.000295898					
112.4	44.47808	-0.00029461					
112.5	44.49809	-0.000293267					
112.6	44.51811	-0.000292048					
112.7	44.5381	-0.000290759					
112.8	44.5581	-0.000289504					
112.9	44.57811	-0.000288072					
113	44.59813	-0.000286828					
113.1	44.61816	-0.000285494					
113.2	44.63817	-0.000284152					
113.3	44.6582	-0.000282726					
113.4	44.67824	-0.000281315					
113.5	44.69826	-0.000279922					
113.6	44.71831	-0.000278468					
113.7	44.73833	-0.000277175					
113.8	44.75837	-0.000275746					
113.9	44.77841	-0.000274269					
114	44.79845	-0.000272782					
114.1	44.81848	-0.000271229					
114.2	44.83849	-0.000269632					
114.3	44.8585	-0.000268277					
114.4	44.87853	-0.00026663					
114.5	44.89852	-0.000265068					
114.6	44.91852	-0.000263571					
114.7	44.93852	-0.00026195					
114.8	44.95852	-0.000260434					
114.9	44.97848	-0.000258739					
115	44.99847	-0.000257171					
115.1	45.01844	-0.000255536					
115.2	45.03842	-0.000254007					
115.3	45.05843	-0.000252207					
115.4	45.07842	-0.000250735					
115.5	45.09841	-0.000249094					
115.6	45.11841	-0.000247399					
115.7	45.13838	-0.000245727					
115.8	45.15835	-0.000244017					
115.9	45.17831	-0.000242363					
116	45.19827	-0.000240553					
116.1	45.21825	-0.000238847					
116.2	45.23826	-0.00023711					
116.3	45.25824	-0.00023547					
116.4	45.27822	-0.000233735					
116.5	45.29824	-0.000231916					
116.6	45.31823	-0.000230387					
116.7	45.33823	-0.000228506					
116.8	45.35822	-0.000226743					
116.9	45.37821	-0.000225051					
117	45.39821	-0.000223326					
117.1	45.41821	-0.000221447					
117.2	45.43822	-0.000219763					
117.3	45.45823	-0.000217938					
117.4	45.47822	-0.000216052					
117.5	45.49822	-0.000214379					
117.6	45.51821	-0.000212413					
117.7	45.5382	-0.000210658					
117.8	45.55819	-0.000208765					
117.9	45.57823	-0.000206977					
118	45.59825	-0.000205032					
118.1	45.61827	-0.000203174					
118.2	45.63829	-0.000201435					
118.3	45.65828	-0.000199423					
118.4	45.6783	-0.000197586					
118.5	45.69828	-0.000195586					
118.6	45.71828	-0.000193829					
118.7	45.73831	-0.000191795					
118.8	45.7583	-0.000189928					
118.9	45.77831	-0.000188069					
119	45.79833	-0.000186086					
119.1	45.81833	-0.000184189					
119.2	45.83833	-0.000182149					
119.3	45.85833	-0.000180315					
119.4	45.87832	-0.000178298					
119.5	45.89832	-0.000176379					
119.6	45.91833	-0.000174401					
119.7	45.93837	-0.00017241					
119.8	45.9584	-0.000170383					
119.9	45.97844	-0.000168368					
120	45.99844	-0.000166356					
120.1	46.01847	-0.000164332					
120.2	46.03851	-0.000162245					
120.3	46.05852	-0.000160249					
120.4	46.07856	-0.00015822					
120.5	46.09861	-0.000156144					
120.6	46.11866	-0.000154113					
120.7	46.1387	-0.000152041					
120.8	46.15874	-0.000149958					
120.9	46.17881	-0.000147956					
121	46.19886	-0.000145684					
121.1	46.2189	-0.000143756					
121.2	46.23898	-0.000141659					
121.3	46.25903	-0.000139561					
121.4	46.27908	-0.00013737					
121.5	46.29912	-0.000135456					
121.6	46.31916	-0.000133343					
121.7	46.33919	-0.000131255					
121.8	46.35921	-0.000129107					
121.9	46.37921	-0.000127127					
122	46.39922	-0.000125081					
122.1	46.41925	-0.000123063					
122.2	46.43927	-0.000120974					
122.3	46.45927	-0.000118951					
122.4	46.47928	-0.000116875					
122.5	46.49929	-0.000114781					
122.6	46.5193	-0.000112685					
122.7	46.5393	-0.000110598					
122.8	46.5593	-0.000108455					
122.9	46.57929	-0.000106361					
123	46.59928	-0.000104068					
123.1	46.61928	-0.000101981					
123.2	46.63926	-9.97553E-05					
123.3	46.65926	-9.76287E-05					
123.4	46.67923	-9.54426E-05					
123.5	46.69922	-9.3282E-05					
123.6	46.71922	-9.11324E-05					
123.7	46.7392	-8.89162E-05					
123.8	46.75919	-8.67342E-05					
123.9	46.77919	-8.45781E-05					
124	46.79922	-8.24216E-05					
124.1	46.81923	-8.01238E-05					
124.2	46.83925	-7.79764E-05					
124.3	46.85923	-7.58066E-05					
124.4	46.87924	-7.35431E-05					
124.5	46.89924	-7.13497E-05					
124.6	46.91923	-6.91029E-05					
124.7	46.93924	-6.69553E-05					
124.8	46.95926	-6.46631E-05					
124.9	46.97928	-6.24868E-05					
125	46.9993	-6.02204E-05					
125.1	47.01933	-5.80055E-05					
125.2	47.03936	-5.56908E-05					
125.3	47.05941	-5.3429E-05					
125.4	47.07946	-5.12789E-05					
125.5	47.0995	-4.89601E-05					
125.6	47.11954	-4.67443E-05					
125.7	47.13958	-4.44484E-05					
125.8	47.15965	-4.22921E-05					
125.9	47.1797	-4.00037E-05					
126	47.19975	-3.77176E-05					
126.1	47.2198	-3.55461E-05					
126.2	47.23983	-3.32292E-05					
126.3	47.25987	-3.10347E-05					
126.4	47.27994	-2.87337E-05					
126.5	47.29998	-2.65149E-05					
126.6	47.32004	-2.42405E-05					
126.7	47.34009	-2.20267E-05					
126.8	47.36012	-1.97079E-05					
126.9	47.38017	-1.75598E-05					
127	47.40023	-1.5256E-05					
127.1	47.42024	-1.2979E-05					
127.2	47.44028	-1.06428E-05					
127.3	47.46031	-8.45946E-06					
127.4	47.48034	-6.27907E-06					
127.5	47.50038	-3.88307E-06					
127.6	47.52041	-1.74968E-06					
127.7	47.54043	5.25544E-07					
127.8	47.56045	2.73904E-06					
127.9	47.58044	4.97061E-06					
128	47.60044	7.3062E-06					
128.1	47.62041	9.51314E-06					
128.2	47.64039	1.17825E-05					
128.3	47.66037	1.39532E-05					
128.4	47.68035	1.63869E-05					
128.5	47.70033	1.84927E-05					
128.6	47.72031	2.08219E-05					
128.7	47.74028	2.29926E-05					
128.8	47.76027	2.51715E-05					
128.9	47.78026	2.73761E-05					
129	47.80024	2.95679E-05					
129.1	47.8202	3.18368E-05					
129.2	47.8402	3.4048E-05					
129.3	47.86017	3.62791E-05					
129.4	47.88015	3.84007E-05					
129.5	47.90011	4.06417E-05					
129.6	47.92008	4.28758E-05					
129.7	47.94005	4.51161E-05					
129.8	47.96005	4.73546E-05					
129.9	47.98002	4.96172E-05					
130	48.00003	5.18359E-05					
130.1	48.02002	5.39837E-05					
130.2	48.04004	5.62368E-05					
130.3	48.06005	5.83991E-05					
130.4	48.08005	6.07207E-05					
130.5	48.10007	6.28538E-05					
130.6	48.1201	6.50426E-05					
130.7	48.14014	6.73072E-05					
130.8	48.16017	6.95744E-05					
130.9	48.18018	7.17841E-05					
131	48.20018	7.39332E-05					
131.1	48.2202	7.62823E-05					
131.2	48.24025	7.84232E-05					
131.3	48.26028	8.06624E-05					
131.4	48.28032	8.30015E-05					
131.5	48.30035	8.52914E-05					
131.6	48.32041	8.7534E-05					
131.7	48.34045	8.98331E-05					
131.8	48.36048	9.22359E-05					
131.9	48.38053	9.44211E-05					
132	48.40056	9.68121E-05					
132.1	48.4206	9.90072E-05					
132.2	48.44059	0.000101343					
132.3	48.46059	0.000103695					
132.4	48.48061	0.000105954					
132.5	48.5006	0.000108223					
132.6	48.5206	0.000110605					
132.7	48.5406	0.000112898					
132.8	48.5606	0.00011504					
132.9	48.58059	0.000117432					
133	48.6006	0.000119652					
133.1	48.62061	0.000121902					
133.2	48.64062	0.000124102					
133.3	48.66061	0.000126379					
133.4	48.68059	0.000128664					
133.5	48.70059	0.000130857					
133.6	48.72059	0.000133107					
133.7	48.74058	0.000135305					
133.8	48.76058	0.000137675					
133.9	48.78059	0.000139883					
134	48.80057	0.000142199					
134.1	48.82058	0.000144492					
134.2	48.84058	0.000146893					
134.3	48.86063	0.0001492					
134.4	48.88067	0.000151557					
134.5	48.90072	0.000153929					
134.6	48.92076	0.000156252					
134.7	48.94077	0.000158604					
134.8	48.9608	0.000160868					
134.9	48.98083	0.000163305					
135	49.00087	0.000165615					
135.1	49.02092	0.000167953					
135.2	49.04096	0.000170284					
135.3	49.06098	0.000172723					
135.4	49.08101	0.000175115					
135.5	49.10105	0.000177502					
135.6	49.1211	0.000179728					
135.7	49.14113	0.000182105					
135.8	49.16118	0.000184636					
135.9	49.18122	0.000186845					
136	49.20126	0.000189303					
136.1	49.2213	0.000191718					
136.2	49.24136	0.000194125					
136.3	49.26139	0.000196496					
136.4	49.28141	0.000198879					
136.5	49.30145	0.000201348					
136.6	49.32148	0.000203626					
136.7	49.34151	0.000206153					
136.8	49.36157	0.000208484					
136.9	49.38159	0.000210877					
137	49.40162	0.000213195					
137.1	49.42163	0.000215482					
137.2	49.44166	0.000218003					
137.3	49.46168	0.000220299					
137.4	49.48171	0.000222754					
137.5	49.50173	0.000224982					
137.6	49.52176	0.000227499					
137.7	49.54179	0.000229883					
137.8	49.5618	0.000232188					
137.9	49.5818	0.00023457					
138	49.60179	0.00023702					
138.1	49.62177	0.000239414					
138.2	49.64179	0.000241707					
138.3	49.66179	0.000244111					
138.4	49.6818	0.000246456					
138.5	49.70179	0.000248943					
138.6	49.72178	0.000251174					
138.7	49.74177	0.000253613					
138.8	49.76175	0.000255921					
138.9	49.78175	0.000258376					
139	49.80175	0.000260692					
139.1	49.82175	0.000263036					
139.2	49.84172	0.000265468					
139.3	49.86171	0.000267817					
139.4	49.88172	0.00027016					
139.5	49.90171	0.000272472					
139.6	49.92172	0.000274944					
139.7	49.9417	0.00027718					
139.8	49.9617	0.000279596					
139.9	49.98171	0.000281914					
140	50.00172	0.000284241					
140.1	50.02177	0.000286639					
140.2	50.04177	0.000288895					
140.3	50.06178	0.000291293					
140.4	50.0818	0.0002936					
140.5	50.10182	0.000295982					
140.6	50.12185	0.000298266					
140.7	50.14186	0.000300668					
140.8	50.1619	0.00030309					
140.9	50.18194	0.000305302					
141	50.20198	0.000307708					
141.1	50.222	0.000310008					
141.2	50.24203	0.000312405					
141.3	50.26209	0.000314686					
141.4	50.28213	0.000317123					
141.5	50.30216	0.000319485					
141.6	50.32219	0.000321808					
141.7	50.34222	0.000324272					
141.8	50.36225	0.000326555					
141.9	50.38226	0.000329042					
142	50.40229	0.000331344					
142.1	50.42232	0.000333818					
142.2	50.44233	0.000336219					
142.3	50.46237	0.000338679					
142.4	50.4824	0.000341131					
142.5	50.50243	0.000343486					
142.6	50.52247	0.000345928					
142.7	50.54249	0.000348457					
142.8	50.56253	0.000350876					
142.9	50.58256	0.00035324					
143	50.60257	0.000355719					
143.1	50.6226	0.000358141					
143.2	50.64263	0.000360577					
143.3	50.66264	0.000362961					
143.4	50.68266	0.000365449					
143.5	50.70266	0.000367771					
143.6	50.72267	0.000370142					
143.7	50.74269	0.000372605					
143.8	50.76269	0.00037498					
143.9	50.7827	0.000377397					
144	50.80271	0.000379813					
144.1	50.82273	0.000382168					
144.2	50.84275	0.000384591					
144.3	50.86275	0.000387004					
144.4	50.88278	0.00038942					
144.5	50.90278	0.000391956					
144.6	50.9228	0.000394333					
144.7	50.94283	0.000396874					
144.8	50.96288	0.000399361					
144.9	50.98292	0.000401871					
145	51.00297	0.000404264					
145.1	51.023	0.000406826					
145.2	51.04308	0.000409351					
145.3	51.06311	0.000411772					
145.4	51.08317	0.000414285					
145.5	51.10323	0.000416835					
145.6	51.12328	0.000419377					
145.7	51.14333	0.000421817					
145.8	51.16336	0.000424387					
145.9	51.18342	0.000426948					
146	51.20349	0.000429368					
146.1	51.22355	0.000431935					
146.2	51.24362	0.000434433					
146.3	51.26366	0.000436861					
146.4	51.28371	0.000439408					
146.5	51.30376	0.000441893					
146.6	51.32379	0.000444407					
146.7	51.34384	0.000446968					
146.8	51.36387	0.000449408					
146.9	51.38388	0.000451973					
147	51.40392	0.000454416					
147.1	51.42393	0.000457007					
147.2	51.44394	0.000459471					
147.3	51.46395	0.000461999					
147.4	51.48399	0.000464359					
147.5	51.50399	0.000466929					
147.6	51.52401	0.000469398					
147.7	51.54406	0.000471804					
147.8	51.56408	0.00047438					
147.9	51.58411	0.000476789					
148	51.60412	0.000479288					
148.1	51.62412	0.000481738					
148.2	51.64414	0.000484213					
148.3	51.66415	0.00048664					
148.4	51.68418	0.000489167					
148.5	51.70421	0.000491702					
148.6	51.72421	0.00049407					
148.7	51.74422	0.000496562					
148.8	51.76422	0.000499087					
148.9	51.78422	0.000501565					
149	51.80421	0.000503966					
149.1	51.82421	0.000506492					
149.2	51.84423	0.000508952					
149.3	51.86423	0.000511396					
149.4	51.88421	0.000513949					
149.5	51.90419	0.00051635					
149.6	51.92419	0.000518788					
149.7	51.94417	0.000521205					
149.8	51.96414	0.000523644					
149.9	51.98411	0.000526053					
150	52.0041	0.000528595					
150.1	52.02408	0.000530998					
150.2	52.04405	0.000533498					
150.3	52.06403	0.000535785					
150.4	52.08399	0.000538371					
150.5	52.10395	0.000540789					
150.6	52.12393	0.000543325					
150.7	52.14392	0.000545786					
150.8	52.16388	0.000548099					
150.9	52.18384	0.00055064					
151	52.2038	0.000552989					
151.1	52.22377	0.000555484					
151.2	52.24373	0.000557925					
151.3	52.2637	0.00056038					
151.4	52.28366	0.000562847					
151.5	52.30366	0.000565296					
151.6	52.32365	0.000567792					
151.7	52.34363	0.000570182					
151.8	52.36363	0.000572836					
151.9	52.38361	0.000575176					
152	52.40362	0.000577824					
152.1	52.42363	0.000580322					
152.2	52.44365	0.000582842					
152.3	52.46365	0.000585354					
152.4	52.48366	0.000587922					
152.5	52.50366	0.000590584					
152.6	52.52368	0.000593029					
152.7	52.54367	0.000595621					
152.8	52.56366	0.000598184					
152.9	52.58369	0.000600772					
153	52.60374	0.000603289					
153.1	52.62377	0.000605861					
153.2	52.64378	0.000608303					
153.3	52.66379	0.000610856					
153.4	52.68381	0.000613463					
153.5	52.70385	0.000615915					
153.6	52.72384	0.000618358					
153.7	52.74387	0.000620916					
153.8	52.76388	0.000623432					
153.9	52.78388	0.000625857					
154	52.80391	0.000628402					
154.1	52.82391	0.000630793					
154.2	52.84389	0.000633406					
154.3	52.86389	0.000635951					
154.4	52.88389	0.000638385					
154.5	52.9039	0.000641005					
154.6	52.92391	0.000643628					
154.7	52.94391	0.000646089					
154.8	52.96394	0.000648648					
154.9	52.98396	0.000651266					
155	53.00394	0.000653836					
155.1	53.02393	0.000656348					
155.2	53.04392	0.000658906					
155.3	53.06392	0.000661452					
155.4	53.0839	0.000664087					
155.5	53.10391	0.000666637					
155.6	53.1239	0.00066913					
155.7	53.14391	0.000671754					
155.8	53.16389	0.000674297					
155.9	53.1839	0.000676831					
156	53.20391	0.000679466					
156.1	53.22391	0.000681985					
156.2	53.24391	0.000684593					
156.3	53.26391	0.000687158					
156.4	53.28392	0.000689714					
156.5	53.30397	0.000692307					
156.6	53.324	0.000694919					
156.7	53.34403	0.000697493					
156.8	53.36403	0.000700032					
156.9	53.38404	0.000702546					
157	53.40407	0.000705178					
157.1	53.4241	0.000707689					
157.2	53.44412	0.000710269					
157.3	53.46415	0.000712807					
157.4	53.48419	0.000715423					
157.5	53.50422	0.000717937					
157.6	53.52423	0.000720411					
157.7	53.54425	0.000723008					
157.8	53.56426	0.000725545					
157.9	53.58426	0.000728175					
158	53.60428	0.000730537					
158.1	53.62428	0.000733184					
158.2	53.64431	0.000735726					
158.3	53.66433	0.000738285					
158.4	53.68436	0.000740774					
158.5	53.70433	0.000743386					
158.6	53.72432	0.000745937					
158.7	53.74429	0.000748453					
158.8	53.76429	0.000750988					
158.9	53.78428	0.000753522					
159	53.80428	0.000756174					
159.1	53.82427	0.000758636					
159.2	53.84426	0.000761187					
159.3	53.86422	0.000763702					
159.4	53.8842	0.000766242					
159.5	53.90417	0.00076883					
159.6	53.92415	0.000771254					
159.7	53.94412	0.000773925					
159.8	53.96408	0.000776363					
159.9	53.98406	0.000778962					
160	54.00402	0.000781402					
160.1	54.02399	0.000784013					
160.2	54.04396	0.000786559					
160.3	54.06391	0.000789026					
160.4	54.08384	0.000791584					
160.5	54.10379	0.000794087					
160.6	54.12374	0.000796661					
160.7	54.14371	0.000799119					
160.8	54.16366	0.00080171					
160.9	54.18362	0.000804246					
161	54.20359	0.000806776					
161.1	54.22358	0.000809316					
161.2	54.24356	0.000811935					
161.3	54.26352	0.000814472					
161.4	54.28351	0.000816994					
161.5	54.30348	0.000819542					
161.6	54.32347	0.00082207					
161.7	54.34345	0.000824678					
161.8	54.36343	0.000827296					
161.9	54.38342	0.00082995					
162	54.40343	0.000832385					
162.1	54.42342	0.000835124					
162.2	54.44342	0.000837752					
162.3	54.4634	0.000840326					
162.4	54.48341	0.000843005					
162.5	54.50341	0.000845566					
162.6	54.52341	0.00084826					
162.7	54.54341	0.000850927					
162.8	54.56342	0.000853563					
162.9	54.58343	0.000856165					
163	54.60345	0.000858787					
163.1	54.62346	0.000861314					
163.2	54.64343	0.000863966					
163.3	54.66344	0.000866452					
163.4	54.68345	0.000869109					
163.5	54.70345	0.000871614					
163.6	54.72345	0.000874154					
163.7	54.74347	0.000876778					
163.8	54.76347	0.000879286					
163.9	54.7835	0.000881931					
164	54.80352	0.000884336					
164.1	54.82351	0.00088693					
164.2	54.84352	0.00088956					
164.3	54.86354	0.00089213					
164.4	54.88355	0.000894845					
164.5	54.90358	0.000897371					
164.6	54.92361	0.000900042					
164.7	54.94362	0.000902593					
164.8	54.96366	0.000905261					
164.9	54.98368	0.000907791					
165	55.0037	0.000910443					
165.1	55.02371	0.000913122					
165.2	55.04371	0.000915631					
165.3	55.06374	0.000918256					
165.4	55.08375	0.000920842					
165.5	55.10375	0.000923536					
165.6	55.12379	0.000926082					
165.7	55.14379	0.000928772					
165.8	55.1638	0.000931386					
165.9	55.18381	0.000933931					
166	55.20381	0.000936563					
166.1	55.22383	0.000939187					
166.2	55.24388	0.000941729					
166.3	55.26389	0.000944397					
166.4	55.28393	0.000946963					
166.5	55.30394	0.000949591					
166.6	55.32395	0.000952091					
166.7	55.34397	0.000954745					
166.8	55.36398	0.000957278					
166.9	55.38399	0.000959823					
167	55.404	0.00096236					
167.1	55.42401	0.000964972					
167.2	55.444	0.000967564					
167.3	55.464	0.00097013					
167.4	55.484	0.000972684					
167.5	55.50402	0.000975213					
167.6	55.52405	0.000977914					
167.7	55.54408	0.000980391					
167.8	55.56408	0.00098286					
167.9	55.5841	0.000985493					
168	55.60411	0.000988071					
168.1	55.6241	0.000990633					
168.2	55.64409	0.000993082					
168.3	55.66409	0.000995753					
168.4	55.68409	0.000998212					
168.5	55.70406	0.001000864					
168.6	55.72407	0.001003332					
168.7	55.74407	0.001005917					
168.8	55.76406	0.001008503					
168.9	55.78407	0.001011125					
169	55.80405	0.001013533					
169.1	55.82403	0.00101617					
169.2	55.84402	0.001018707					
169.3	55.86404	0.001021141					
169.4	55.88405	0.001023731					
169.5	55.90406	0.001026276					
169.6	55.92403	0.001028851					
169.7	55.94401	0.001031318					
169.8	55.96398	0.001033924					
169.9	55.98401	0.001036429					
170	56.00402	0.001038943					
170.1	56.02401	0.001041527					
170.2	56.04401	0.00104408					
170.3	56.06401	0.001046556					
170.4	56.084	0.001049185					
170.5	56.10398	0.00105177					
170.6	56.12398	0.001054186					
170.7	56.14395	0.00105678					
170.8	56.16396	0.001059301					
170.9	56.18394	0.001061901					
171	56.20391	0.001064341					
171.1	56.22391	0.001066969					
171.2	56.24393	0.001069543					
171.3	56.26394	0.001072158					
171.4	56.28393	0.001074732					
171.5	56.30394	0.001077269					
171.6	56.32395	0.001080013					
171.7	56.34395	0.001082561					
171.8	56.36395	0.001085295					
171.9	56.38395	0.001087843					
172	56.40393	0.001090582					
172.1	56.42388	0.001093197					
172.2	56.44387	0.001095818					
172.3	56.46386	0.001098431					
172.4	56.48381	0.001100963					
172.5	56.50378	0.001103681					
172.6	56.52376	0.001106249					
172.7	56.54375	0.001108874					
172.8	56.56372	0.001111477					
172.9	56.58369	0.001114102					
173	56.60368	0.001116526					
173.1	56.62368	0.001119154					
173.2	56.64364	0.00112173					
173.3	56.6636	0.001124312					
173.4	56.68355	0.00112686					
173.5	56.70351	0.001129365					
173.6	56.72345	0.001131919					
173.7	56.7434	0.001134515					
173.8	56.76337	0.001137132					
173.9	56.78335	0.001139658					
174	56.80329	0.001142347					
174.1	56.82324	0.001145002					
174.2	56.84324	0.001147672					
174.3	56.86321	0.001150301					
174.4	56.88317	0.001152949					
174.5	56.90315	0.001155586					
174.6	56.92315	0.001158222					
174.7	56.94311	0.001160804					
174.8	56.96308	0.001163511					
174.9	56.98308	0.001166075					
175	57.00307	0.00116864					
175.1	57.02306	0.001171334					
175.2	57.04304	0.001173937					
175.3	57.06304	0.001176548					
175.4	57.083	0.001179222					
175.5	57.10298	0.001181863					
175.6	57.12297	0.001184455					
175.7	57.14296	0.001187143					
175.8	57.16294	0.001189715					
175.9	57.18293	0.001192357					
176	57.20288	0.001194992					
176.1	57.22288	0.001197598					
176.2	57.24284	0.00120022					
176.3	57.26282	0.001202789					
176.4	57.2828	0.001205362					
176.5	57.3028	0.001208024					
176.6	57.3228	0.001210708					
176.7	57.34278	0.001213231					
176.8	57.36277	0.001215824					
176.9	57.38276	0.001218455					
177	57.40273	0.001221098					
177.1	57.42271	0.001223696					
177.2	57.44269	0.001226254					
177.3	57.46269	0.001228949					
177.4	57.48269	0.00123148					
177.5	57.50269	0.001234195					
177.6	57.52271	0.001236712					
177.7	57.54269	0.001239413					
177.8	57.56269	0.001241922					
177.9	57.5827	0.001244586					
178	57.60268	0.00124723					
178.1	57.62269	0.001249786					
178.2	57.64271	0.001252462					
178.3	57.66274	0.001254983					
178.4	57.68275	0.001257716					
178.5	57.70276	0.001260275					
178.6	57.72276	0.001262889					
178.7	57.74277	0.00126542					
178.8	57.7628	0.001268066					
178.9	57.7828	0.001270635					
179	57.80281	0.00127327					
179.1	57.82282	0.001275919					
179.2	57.84283	0.001278461					
179.3	57.86284	0.001281115					
179.4	57.88286	0.001283694					
179.5	57.90287	0.001286358					
179.6	57.92288	0.001288819					
179.7	57.94288	0.001291492					
179.8	57.96293	0.001294032					
179.9	57.98295	0.001296695					
180	58.00297	0.001299291					
180.1	58.02298	0.001301939					
180.2	58.043	0.001304548					
180.3	58.06302	0.001307074					
180.4	58.08304	0.001309756					
180.5	58.10305	0.001312352					
180.6	58.12304	0.001315051					
180.7	58.14307	0.001317583					
180.8	58.16306	0.00132025					
180.9	58.18307	0.001322984					
181	58.20312	0.001325697					
181.1	58.22314	0.001328338					
181.2	58.24316	0.001330973					
181.3	58.2632	0.00133373					
181.4	58.28323	0.001336373					
181.5	58.30327	0.001339134					
181.6	58.32332	0.001341777					
181.7	58.34338	0.001344542					
181.8	58.36341	0.001347136					
181.9	58.38344	0.001349895					
182	58.40346	0.00135252					
182.1	58.42349	0.001355157					
182.2	58.44353	0.001357848					
182.3	58.46355	0.001360381					
182.4	58.48358	0.001363018					
182.5	58.5036	0.001365573					
182.6	58.52363	0.001368293					
182.7	58.54368	0.00137078					
182.8	58.56371	0.001373448					
182.9	58.58375	0.001375983					
183	58.60377	0.001378615					
183.1	58.62378	0.001381216					
183.2	58.64381	0.001383898					
183.3	58.66383	0.001386576					
183.4	58.68384	0.001389222					
183.5	58.70384	0.001392017					
183.6	58.72383	0.001394621					
183.7	58.74382	0.001397418					
183.8	58.76383	0.001400091					
183.9	58.78383	0.001402804					
184	58.80383	0.001405516					
184.1	58.82383	0.001408258					
184.2	58.84384	0.00141092					
184.3	58.86384	0.00141363					
184.4	58.88386	0.001416293					
184.5	58.90387	0.001418962					
184.6	58.9239	0.001421675					
184.7	58.94392	0.001424407					
184.8	58.96394	0.001427106					
184.9	58.98395	0.00142977					
185	59.00399	0.001432461					
185.1	59.024	0.001435163					
185.2	59.04405	0.001437906					
185.3	59.06407	0.001440581					
185.4	59.0841	0.001443282					
185.5	59.10411	0.001445996					
185.6	59.12416	0.001448622					
185.7	59.14418	0.001451323					
185.8	59.1642	0.001453938					
185.9	59.18421	0.001456704					
186	59.20424	0.001459315					
186.1	59.22425	0.001461999					
186.2	59.24427	0.001464661					
186.3	59.26429	0.001467366					
186.4	59.28428	0.001470003					
186.5	59.30428	0.001472641					
186.6	59.32428	0.001475353					
186.7	59.34428	0.001478048					
186.8	59.36425	0.00148075					
186.9	59.38422	0.001483332					
187	59.40421	0.00148602					
187.1	59.42421	0.00148868					
187.2	59.44419	0.001491353					
187.3	59.46416	0.001493986					
187.4	59.48413	0.001496679					
187.5	59.50411	0.00149934					
187.6	59.52409	0.00150206					
187.7	59.54406	0.001504628					
187.8	59.56403	0.001507218					
187.9	59.584	0.001509858					
188	59.60398	0.001512548					
188.1	59.62397	0.001515105					
188.2	59.64397	0.001517734					
188.3	59.66394	0.001520376					
188.4	59.68391	0.001522985					
188.5	59.70389	0.001525623					
188.6	59.72388	0.001528207					
188.7	59.74388	0.001530881					
188.8	59.76386	0.001533516					
188.9	59.78385	0.001536163					
189	59.80386	0.001538707					
189.1	59.82383	0.001541312					
189.2	59.84379	0.001543997					
189.3	59.86375	0.001546505					
189.4	59.88373	0.001549204					
189.5	59.9037	0.001551789					
189.6	59.92365	0.001554461					
189.7	59.94363	0.001557068					
189.8	59.96359	0.001559666					
189.9	59.98356	0.001562301					
190	60.0035	0.001564962					
190.1	60.02343	0.001567562					
190.2	60.0434	0.001570174					
190.3	60.06333	0.001572923					
190.4	60.08328	0.001575517					
190.5	60.10326	0.001578346					
190.6	60.12324	0.001580913					
190.7	60.14319	0.001583708					
190.8	60.16314	0.001586329					
190.9	60.18314	0.001589038					
191	60.2031	0.001591759					
191.1	60.22308	0.001594371					
191.2	60.24304	0.001597158					
191.3	60.26304	0.001599737					
191.4	60.28303	0.001602513					
191.5	60.30302	0.001605115					
191.6	60.32304	0.001607909					
191.7	60.34303	0.00161042					
191.8	60.36304	0.001613154					
191.9	60.38306	0.001615707					
192	60.4031	0.001618451					
192.1	60.42314	0.001621042					
192.2	60.44315	0.001623711					
192.3	60.46317	0.001626286					
192.4	60.4832	0.001628843					
192.5	60.50324	0.001631685					
192.6	60.52325	0.001634255					
192.7	60.54327	0.001637076					
192.8	60.56329	0.00163983					
192.9	60.58331	0.001642571					
193	60.60331	0.001645239					
193.1	60.62334	0.001647997					
193.2	60.64336	0.001650681					
193.3	60.66336	0.001653377					
193.4	60.68337	0.001656222					
193.5	60.70338	0.001658903					
193.6	60.72339	0.001661662					
193.7	60.74336	0.001664349					
193.8	60.76333	0.001667101					
193.9	60.7833	0.001669783					
194	60.80326	0.001672569					
194.1	60.82322	0.00167529					
194.2	60.8432	0.001678004					
194.3	60.86319	0.001680806					
194.4	60.88316	0.001683558					
194.5	60.90313	0.001686281					
194.6	60.92309	0.001689038					
194.7	60.94307	0.001691767					
194.8	60.96301	0.001694546					
194.9	60.98299	0.001697317					
195	61.00296	0.001700018					
195.1	61.02295	0.001702758					
195.2	61.04291	0.001705472					
195.3	61.06288	0.001708141					
195.4	61.08288	0.001710875					
195.5	61.10287	0.00171361					
195.6	61.12285	0.001716304					
195.7	61.14282	0.001719009					
195.8	61.16284	0.001721645					
195.9	61.18286	0.001724341					
196	61.20289	0.001727091					
196.1	61.22293	0.001729796					
196.2	61.24294	0.001732415					
196.3	61.26295	0.001735165					
196.4	61.28298	0.001737839					
196.5	61.303	0.00174055					
196.6	61.32304	0.001743248					
196.7	61.34308	0.001745965					
196.8	61.36313	0.001748593					
196.9	61.38314	0.001751312					
197	61.40319	0.001753954					
197.1	61.42319	0.001756564					
197.2	61.44321	0.001759224					
197.3	61.46326	0.001761912					
197.4	61.48329	0.001764492					
197.5	61.50333	0.001767144					
197.6	61.52335	0.001769736					
197.7	61.54339	0.001772353					
197.8	61.56344	0.001774931					
197.9	61.58349	0.001777582					
198	61.60349	0.001780224					
198.1	61.6235	0.001782793					
198.2	61.6435	0.001785414					
198.3	61.6635	0.00178794					
198.4	61.68352	0.00179062					
198.5	61.70355	0.001793224					
198.6	61.72356	0.0017958					
198.7	61.74356	0.001798411					
198.8	61.76355	0.001800991					
198.9	61.78356	0.001803634					
199	61.80358	0.001806265					
199.1	61.8236	0.001808889					
199.2	61.84359	0.001811386					
199.3	61.86358	0.001814083					
199.4	61.88354	0.001816689					
199.5	61.9035	0.001819399					
199.6	61.92351	0.001822044					
199.7	61.94354	0.001824716					
199.8	61.96349	0.001827467					
199.9	61.98349	0.001830105					
